0 1.025573
0.000 2.004626
0.004 1.132117
0.008 0.019549
0.012 0.736183
0.016 1.923190
0.020 1.373948
0.024 0.130419
0.028 0.553101
0.032 1.905658
0.036 1.689731
0.040 0.360491
0.044 0.429131
0.048 1.761343
0.052 1.834441
0.056 0.507895
0.060 0.226112
0.064 1.540697
0.068 1.982922
0.072 0.675344
0.076 0.079973
0.080 1.318277
0.084 2.009236
0.088 0.906718
0.092 0.052545
0.096 1.040497
0.100 2.028553
0.104 1.163583
0.108 0.035838
0.112 0.789732
0.116 1.990061
0.120 1.429350
0.124 0.137613
0.128 0.595884
0.132 1.943997
0.136 1.733170
0.140 0.382420
0.144 0.455913
0.148 1.797177
0.152 1.883160
0.156 0.479434
0.160 0.188447
0.164 1.579396
0.168 2.001535
0.172 0.757349
0.176 0.165213
0.180 1.459780
0.184 2.288938
0.188 1.242188
0.192 0.462916
0.196 1.540782
0.200 2.593912
0.204 1.788168
0.208 0.615675
0.212 1.229867
0.216 2.377462
0.220 1.691390
0.224 0.335981
0.228 0.694958
0.232 1.946662
0.236 1.608419
0.240 0.138239
0.244 0.253671
0.248 1.679352
0.252 1.815623
0.256 0.462834
0.260 0.198453
0.264 1.513901
0.268 1.961252
0.272 0.680771
0.276 0.109634
0.280 1.314077
0.284 2.040171
0.288 0.888795
0.292 0.026470
0.296 1.049050
0.300 2.061206
0.304 1.194975
0.308 0.096198
0.312 0.808599
0.316 1.987097
0.320 1.404678
0.324 0.131143
0.328 0.573566
0.332 1.891912
0.336 1.673515
0.340 0.282620
0.344 0.382974
0.348 1.796174
0.352 1.829339
0.356 0.483325
0.360 0.176213
0.364 1.554191
0.368 1.962784
0.372 0.687972
0.376 0.126837
0.380 1.333139
0.384 2.040102
0.388 0.984949
0.392 0.122905
0.396 1.133818
0.400 2.150533
0.404 1.216830
0.408 0.111491
0.412 0.792292
0.416 1.972090
0.420 1.416183
0.424 0.153814
0.428 0.560653
0.432 1.920571
0.436 1.668462
0.440 0.241132
0.444 0.371934
0.448 1.726859
0.452 1.808971
0.456 0.461780
0.460 0.164240
0.464 1.552687
0.468 1.948954
0.472 0.668925
0.476 0.087029
0.480 1.239534
0.484 2.005672
0.488 0.872528
0.492 0.000337
0.496 0.996068
0.500 1.988293
0.504 1.103843
0.508 0.042470
0.512 0.790165
0.516 1.991024
0.520 1.393452
0.524 0.110204
0.528 0.554881
0.532 1.896242
0.536 1.649589
0.540 0.315873
0.544 0.425351
0.548 1.787601
0.552 1.862743
0.556 0.470710
0.560 0.184222
0.564 1.522246
0.568 1.939271
0.572 0.634503
0.576 0.063782
0.580 1.258495
0.584 2.007077
0.588 0.901157
0.592 0.056977
0.596 1.035719
0.600 2.003755
0.604 1.158511
0.608 0.056667
0.612 0.838188
0.616 2.046140
0.620 1.467363
0.624 0.201687
0.628 0.692898
0.632 2.001114
0.636 1.719533
0.640 0.399702
0.644 0.451474
0.648 1.807759
0.652 1.854997
0.656 0.506884
0.660 0.226197
0.664 1.580855
0.668 1.977981
0.672 0.724373
0.676 0.110210
0.680 1.265679
0.684 2.031963
0.688 0.961489
0.692 0.071950
0.696 1.064248
0.700 2.083559
0.704 1.145641
0.708 0.093856
0.712 0.792960
0.716 1.985229
0.720 1.388916
0.724 0.125382
0.728 0.551785
0.732 1.826835
0.736 1.621234
0.740 0.210317
0.744 0.324970
0.748 1.635968
0.752 1.760047
0.756 0.398402
0.760 0.083400
0.764 1.437144
0.768 1.816522
0.772 0.551246
0.776 -0.041362
0.780 1.169826
0.784 1.918119
0.788 0.772488
0.792 -0.111324
0.796 0.885353
0.800 1.887540
0.804 1.002172
0.808 -0.154524
0.812 0.572804
0.816 1.788041
0.820 1.225275
0.824 -0.085680
0.828 0.323871
0.832 1.645040
0.836 1.374324
0.840 0.024939
0.844 0.146780
0.848 1.534047
0.852 1.586053
0.856 0.244475
0.860 -0.010646
0.864 1.324915
0.868 1.772019
0.872 0.502217
0.876 -0.098758
0.880 1.142461
0.884 1.843145
0.888 0.746091
0.892 -0.124603
0.896 0.853456
0.900 1.878142
0.904 0.990870
0.908 -0.121189
0.912 0.610083
0.916 1.835737
0.920 1.248021
0.924 -0.007450
0.928 0.379870
0.932 1.730757
0.936 1.487159
0.940 0.081112
0.944 0.182205
0.948 1.594004
0.952 1.669016
0.956 0.341081
0.960 0.041465
0.964 1.385970
0.968 1.789907
0.972 0.499058
0.976 -0.083160
0.980 1.134396
0.984 1.817594
0.988 0.718876
0.992 -0.161131
0.996 0.885730
1.000 1.858519
1.004 0.987990
1.008 -0.147239
1.012 0.610523
1.016 1.816384
1.020 1.213035
1.024 -0.061480
1.028 0.332825
1.032 1.672053
1.036 1.414494
1.040 0.087862
1.044 0.153660
1.048 1.584752
1.052 1.660357
1.056 0.287952
1.060 0.048588
1.064 1.310983
1.068 1.771372
1.072 0.490400
1.076 -0.076621
1.080 1.145262
1.084 1.852477
1.088 0.732181
1.092 -0.121102
1.096 0.875289
1.100 1.925203
1.104 1.023596
1.108 -0.073776
1.112 0.668547
1.116 1.850257
1.120 1.254817
1.124 -0.000406
1.128 0.443753
1.132 1.804185
1.136 1.567270
1.140 0.187517
1.144 0.268594
1.148 1.629701
1.152 1.695971
1.156 0.337546
1.160 0.085161
1.164 1.398306
1.168 1.800582
1.172 0.573625
1.176 -0.045674
1.180 1.188307
1.184 1.937297
1.188 0.770099
1.192 -0.100505
1.196 0.842656
1.200 1.861113
1.204 0.953685
1.208 -0.153172
1.212 0.629047
1.216 1.841155
1.220 1.243542
1.224 -0.006348
1.228 0.491323
1.232 1.926331
1.236 1.695471
1.240 0.448658
1.244 0.629989
1.248 2.057336
1.252 2.200123
1.256 0.743917
1.260 0.451814
1.264 1.684972
1.268 2.015180
1.272 0.686694
1.276 0.044650
1.280 1.188820
1.284 1.813473
1.288 0.634983
1.292 -0.152561
1.296 0.868294
1.300 1.892935
1.304 1.054788
1.308 -0.002469
1.312 0.700157
1.316 1.890422
1.320 1.309033
1.324 0.037280
1.328 0.472529
1.332 1.789354
1.336 1.508072
1.340 0.119970
1.344 0.185464
1.348 1.591138
1.352 1.691738
1.356 0.355009
1.360 0.088135
1.364 1.400465
1.368 1.822852
1.372 0.572449
1.376 0.012708
1.380 1.209314
1.384 1.978739
1.388 0.875461
1.392 -0.013682
1.396 1.020028
1.400 2.012939
1.404 1.142480
1.408 0.029488
1.412 0.731961
1.416 1.946542
1.420 1.338691
1.424 0.077525
1.428 0.531249
1.432 1.842993
1.436 1.599645
1.440 0.259817
1.444 0.343688
1.448 1.748592
1.452 1.844777
1.456 0.454547
1.460 0.239958
1.464 1.502704
1.468 1.937307
1.472 0.655280
1.476 0.051314
1.480 1.262398
1.484 1.982300
1.488 0.859515
1.492 -0.079022
1.496 0.926798
1.500 1.949881
1.504 1.079523
1.508 -0.063977
1.512 0.681186
1.516 1.938682
1.520 1.335028
1.524 0.102831
1.528 0.515668
1.532 1.844446
1.536 1.621176
1.540 0.266834
1.544 0.353809
1.548 1.675645
1.552 1.780106
1.556 0.401961
1.560 0.137263
1.564 1.486604
1.568 1.910211
1.572 0.656824
1.576 0.087310
1.580 1.274927
1.584 2.023796
1.588 0.906606
1.592 0.020080
1.596 1.039677
1.600 2.077791
1.604 1.191513
1.608 0.052180
1.612 0.814950
1.616 2.032978
1.620 1.412317
1.624 0.145832
1.628 0.568502
1.632 1.857252
1.636 1.637512
1.640 0.263796
1.644 0.371711
1.648 1.721142
1.652 1.776618
1.656 0.445568
1.660 0.159944
1.664 1.520943
1.668 1.968766
1.672 0.696614
1.676 0.093356
1.680 1.299443
1.684 2.046383
1.688 0.980597
1.692 0.098147
1.696 1.114286
1.700 2.114062
1.704 1.234577
1.708 0.118369
1.712 0.844045
1.716 2.052470
1.720 1.447107
1.724 0.148266
1.728 0.642027
1.732 1.947365
1.736 1.709179
1.740 0.285187
1.744 0.387902
1.748 1.733638
1.752 1.837931
1.756 0.473027
1.760 0.217204
1.764 1.544471
1.768 1.953108
1.772 0.666249
1.776 0.088758
1.780 1.265565
1.784 2.056163
1.788 0.894358
1.792 0.020097
1.796 1.014537
1.800 2.011988
1.804 1.116879
1.808 0.010903
1.812 0.715484
1.816 1.933234
1.820 1.338716
1.824 0.044476
1.828 0.498822
1.832 1.807205
1.836 1.525855
1.840 0.187302
1.844 0.286428
1.848 1.655303
1.852 1.711349
1.856 0.326624
1.860 0.042142
1.864 1.365059
1.868 1.791535
1.872 0.496112
1.876 -0.072264
1.880 1.134778
1.884 1.872410
1.888 0.769485
1.892 -0.135673
1.896 0.880798
1.900 1.866118
1.904 0.992111
1.908 -0.130664
1.912 0.637469
1.916 1.837547
1.920 1.260512
1.924 -0.031020
1.928 0.439863
1.932 1.720968
1.936 1.459720
1.940 0.106343
1.944 0.189316
1.948 1.626777
1.952 1.688393
1.956 0.314984
1.960 0.021830
1.964 1.348261
1.968 1.781670
1.972 0.498094
1.976 -0.040587
1.980 1.138524
1.984 1.821690
1.988 0.783159
1.992 -0.095611
1.996 0.927509
2.000 1.915727
2.004 1.022054
2.008 -0.083248
2.012 0.679245
2.016 1.831914
2.020 1.236594
2.024 -0.015441
2.028 0.379316
2.032 1.732541
2.036 1.489371
2.040 0.127370
2.044 0.222689
2.048 1.554911
2.052 1.629907
2.056 0.302757
2.060 0.021839
2.064 1.399784
2.068 1.806021
2.072 0.545857
2.076 -0.014597
2.080 1.197399
2.084 1.950358
2.088 0.831909
2.092 -0.062776
2.096 0.931176
2.100 1.952040
2.104 1.081766
2.108 -0.074015
2.112 0.675452
2.116 1.876000
2.120 1.308773
2.124 0.069250
2.128 0.461439
2.132 1.804636
2.136 1.583674
2.140 0.233046
2.144 0.314075
2.148 1.636662
2.152 1.702611
2.156 0.388012
2.160 0.076689
2.164 1.402363
2.168 1.839816
2.172 0.549577
2.176 0.016992
2.180 1.219213
2.184 1.911159
2.188 0.832502
2.192 -0.044275
2.196 0.997472
2.200 1.984788
2.204 1.085225
2.208 -0.050564
2.212 0.664476
2.216 1.836563
2.220 1.262938
2.224 -0.051430
2.228 0.390696
2.232 1.722510
2.236 1.483364
2.240 0.071232
2.244 0.192034
2.248 1.517832
2.252 1.566585
2.256 0.269734
2.260 0.040825
2.264 1.385218
2.268 1.789090
2.272 0.541555
2.276 -0.005412
2.280 1.289764
2.284 2.047926
2.288 1.058280
2.292 0.210263
2.296 1.276577
2.300 2.385037
2.304 1.462524
2.308 0.233984
2.312 0.891059
2.316 2.051642
2.320 1.370740
2.324 0.022387
2.328 0.345918
2.332 1.564713
2.336 1.205881
2.340 -0.074522
2.344 0.027037
2.348 1.411508
2.352 1.547852
2.356 0.183080
2.360 -0.107825
2.364 1.234168
2.368 1.651651
2.372 0.386775
2.376 -0.207367
2.380 0.974435
2.384 1.763211
2.388 0.657391
2.392 -0.192135
2.396 0.798507
2.400 1.782850
2.404 0.917918
2.408 -0.166843
2.412 0.542074
2.416 1.746311
2.420 1.111850
2.424 -0.139695
2.428 0.280535
2.432 1.619944
2.436 1.345570
2.440 0.052763
2.444 0.124636
2.448 1.512301
2.452 1.616494
2.456 0.273481
2.460 0.016163
2.464 1.361573
2.468 1.846612
2.472 0.551989
2.476 -0.016865
2.480 1.192780
2.484 1.934215
2.488 0.835557
2.492 -0.055409
2.496 0.966999
2.500 2.001667
2.504 1.121936
2.508 -0.015936
2.512 0.736665
2.516 1.925617
2.520 1.310088
2.524 0.029935
2.528 0.461692
2.532 1.821569
2.536 1.548966
2.540 0.167759
2.544 0.211733
2.548 1.589750
2.552 1.674635
2.556 0.279412
2.560 0.044594
2.564 1.357509
2.568 1.805363
2.572 0.522060
2.576 -0.034288
2.580 1.153115
2.584 1.897983
2.588 0.747550
2.592 -0.096068
2.596 0.922893
2.600 1.874043
2.604 1.047717
2.608 -0.070239
2.612 0.692796
2.616 1.858208
2.620 1.289501
2.624 0.037292
2.628 0.431377
2.632 1.712350
2.636 1.449873
2.640 0.138707
2.644 0.178508
2.648 1.587795
2.652 1.679258
2.656 0.328990
2.660 0.048382
2.664 1.325685
2.668 1.773997
2.672 0.531980
2.676 -0.102647
2.680 1.119169
2.684 1.904951
2.688 0.773554
2.692 -0.054352
2.696 0.918740
2.700 1.967370
2.704 1.049439
2.708 -0.019171
2.712 0.676547
2.716 1.877140
2.720 1.347183
2.724 0.053078
2.728 0.469707
2.732 1.783343
2.736 1.552201
2.740 0.212281
2.744 0.272666
2.748 1.667115
2.752 1.707880
2.756 0.376909
2.760 0.168691
2.764 1.476831
2.768 1.929632
2.772 0.664703
2.776 0.100543
2.780 1.259667
2.784 1.962855
2.788 0.875096
2.792 -0.009612
2.796 1.029538
2.800 2.024819
2.804 1.173361
2.808 0.038972
2.812 0.781469
2.816 2.000313
2.820 1.476404
2.824 0.194104
2.828 0.632491
2.832 1.941180
2.836 1.690130
2.840 0.268421
2.844 0.359081
2.848 1.709615
2.852 1.798386
2.856 0.416511
2.860 0.141227
2.864 1.435331
2.868 1.893344
2.872 0.571279
2.876 0.013200
2.880 1.216555
2.884 1.937295
2.888 0.799578
2.892 -0.068987
2.896 0.884906
2.900 1.895840
2.904 0.987051
2.908 -0.123308
2.912 0.634249
2.916 1.832388
2.920 1.262129
2.924 -0.020668
2.928 0.433519
2.932 1.774010
2.936 1.479126
2.940 0.142954
2.944 0.173627
2.948 1.538564
2.952 1.610342
2.956 0.271169
2.960 0.018482
2.964 1.353193
2.968 1.787182
2.972 0.518667
2.976 -0.059812
2.980 1.124141
2.984 1.860135
2.988 0.759393
2.992 -0.071501
2.996 0.907974
3.000 1.857676
3.004 1.021489
3.008 -0.125488
3.012 0.594243
3.016 1.803976
3.020 1.218855
3.024 -0.041317
3.028 0.369661
3.032 1.665435
3.036 1.439331
3.040 0.123143
3.044 0.223812
3.048 1.616046
3.052 1.739386
3.056 0.338322
3.060 0.116514
3.064 1.441552
3.068 1.855278
3.072 0.523863
3.076 -0.053153
3.080 1.152498
3.084 1.920662
3.088 0.813779
3.092 -0.116076
3.096 0.906147
3.100 1.870537
3.104 1.015830
3.108 -0.080577
3.112 0.637341
3.116 1.851542
3.120 1.255064
3.124 0.001930
3.128 0.378386
3.132 1.728571
3.136 1.491412
3.140 0.133072
3.144 0.177961
3.148 1.587704
3.152 1.701358
3.156 0.365488
3.160 0.105561
3.164 1.418045
3.168 1.892027
3.172 0.656442
3.176 0.015551
3.180 1.217184
3.184 1.974371
3.188 0.848192
3.192 -0.056442
3.196 0.935177
3.200 1.920563
3.204 1.016076
3.208 -0.037928
3.212 0.676298
3.216 1.897169
3.220 1.331726
3.224 0.068705
3.228 0.482522
3.232 1.780333
3.236 1.551726
3.240 0.218480
3.244 0.318470
3.248 1.679276
3.252 1.777203
3.256 0.441518
3.260 0.206412
3.264 1.485795
3.268 1.913149
3.272 0.687266
3.276 0.114509
3.280 1.332077
3.284 2.061566
3.288 0.915594
3.292 0.002714
3.296 1.046410
3.300 2.039733
3.304 1.141853
3.308 0.088757
3.312 0.839542
3.316 1.993785
3.320 1.477420
3.324 0.293233
3.328 0.799049
3.332 2.183609
3.336 2.019345
3.340 0.681553
3.344 0.847825
3.348 2.299043
3.352 2.269042
3.356 0.802677
3.360 0.446659
3.364 1.687440
3.368 2.057955
3.372 0.650630
3.376 0.005001
3.380 1.144540
3.384 1.764102
3.388 0.668770
3.392 -0.198048
3.396 0.864747
3.400 1.907541
3.404 1.048785
3.408 -0.028433
3.412 0.662876
3.416 1.874639
3.420 1.286304
3.424 0.042381
3.428 0.457363
3.432 1.811169
3.436 1.583162
3.440 0.231328
3.444 0.315064
3.448 1.724237
3.452 1.826132
3.456 0.421907
3.460 0.197659
3.464 1.523005
3.468 1.922163
3.472 0.646662
3.476 0.094657
3.480 1.264884
3.484 1.998765
3.488 0.905261
3.492 0.023272
3.496 1.019431
3.500 2.051188
3.504 1.136484
3.508 0.039711
3.512 0.799466
3.516 2.036162
3.520 1.460520
3.524 0.241373
3.528 0.683340
3.532 1.974958
3.536 1.746457
3.540 0.349920
3.544 0.450673
3.548 1.833665
3.552 1.922410
3.556 0.574366
3.560 0.325571
3.564 1.677200
3.568 2.084726
3.572 0.762244
3.576 0.162109
3.580 1.358888
3.584 2.126291
3.588 0.953980
3.592 0.117381
3.596 1.082747
3.600 2.114291
3.604 1.195209
3.608 0.102084
3.612 0.873599
3.616 2.077021
3.620 1.470036
3.624 0.223547
3.628 0.660030
3.632 1.993179
3.636 1.705816
3.640 0.336378
3.644 0.402072
3.648 1.792070
3.652 1.864918
3.656 0.466866
3.660 0.207636
3.664 1.545505
3.668 2.007282
3.672 0.689557
3.676 0.129054
3.680 1.336095
3.684 2.097239
3.688 0.949061
3.692 0.114757
3.696 1.135457
3.700 2.130094
3.704 1.235458
3.708 0.182116
3.712 0.892667
3.716 2.051838
3.720 1.502839
3.724 0.182097
3.728 0.650832
3.732 1.936681
3.736 1.668914
3.740 0.278506
3.744 0.364399
3.748 1.701184
3.752 1.778214
3.756 0.435259
3.760 0.171875
3.764 1.510981
3.768 1.915471
3.772 0.621723
3.776 0.023953
3.780 1.200094
3.784 1.949179
3.788 0.836035
3.792 -0.032867
3.796 0.942905
3.800 1.905289
3.804 1.036392
3.808 -0.087149
3.812 0.698800
3.816 1.880980
3.820 1.250247
3.824 -0.037815
3.828 0.349585
3.832 1.688486
3.836 1.461337
3.840 0.076088
3.844 0.149708
3.848 1.519024
3.852 1.624495
3.856 0.241192
3.860 -0.000664
3.864 1.336758
3.868 1.788202
3.872 0.491162
3.876 -0.059597
3.880 1.162903
3.884 1.904781
3.888 0.793525
3.892 -0.074403
3.896 0.869933
3.900 1.908216
3.904 1.061984
3.908 -0.059594
3.912 0.646026
3.916 1.829581
3.920 1.204111
3.924 -0.051815
3.928 0.389710
3.932 1.750010
3.936 1.454420
3.940 0.098304
3.944 0.194874
3.948 1.541246
3.952 1.632678
3.956 0.267332
3.960 -0.003891
3.964 1.343772
3.968 1.727460
3.972 0.463279
3.976 -0.115491
3.980 1.052526
3.984 1.804879
3.988 0.712823
3.992 -0.176066
3.996 0.810275
4.000 1.822419
4.004 0.931499
4.008 -0.122178
4.012 0.608686
4.016 1.787868
4.020 1.226824
4.024 -0.053486
4.028 0.357124
4.032 1.673311
4.036 1.434194
4.040 0.085174
4.044 0.129287
4.048 1.544195
4.052 1.645646
4.056 0.272237
4.060 0.017709
4.064 1.323469
4.068 1.761273
4.072 0.478413
4.076 -0.083825
4.080 1.100826
4.084 1.843358
4.088 0.716185
4.092 -0.159845
4.096 0.807085
4.100 1.783080
4.104 0.879773
4.108 -0.224769
4.112 0.513775
4.116 1.719863
4.120 1.135492
4.124 -0.106414
4.128 0.327960
4.132 1.633237
4.136 1.382452
4.140 0.028532
4.144 0.132374
4.148 1.507304
4.152 1.553561
4.156 0.207136
4.160 -0.059053
4.164 1.227764
4.168 1.696721
4.172 0.410837
4.176 -0.200251
4.180 0.991563
4.184 1.756216
4.188 0.624101
4.192 -0.256581
4.196 0.699139
4.200 1.714190
4.204 0.831012
4.208 -0.272887
4.212 0.449420
4.216 1.628629
4.220 1.092365
4.224 -0.197521
4.228 0.241411
4.232 1.561830
4.236 1.367860
4.240 -0.025629
4.244 0.083620
4.248 1.432033
4.252 1.488204
4.256 0.123428
4.260 -0.087687
4.264 1.215074
4.268 1.606275
4.272 0.376162
4.276 -0.213760
4.280 0.969525
4.284 1.691181
4.288 0.578741
4.292 -0.331840
4.296 0.706662
4.300 1.714820
4.304 0.860698
4.308 -0.261203
4.312 0.456724
4.316 1.679488
4.320 1.136266
4.324 -0.167919
4.328 0.252692
4.332 1.569592
4.336 1.305465
4.340 -0.034100
4.344 0.031992
4.348 1.431874
4.352 1.484533
4.356 0.159623
4.360 -0.126694
4.364 1.206488
4.368 1.648209
4.372 0.328640
4.376 -0.219835
4.380 1.098054
4.384 1.871284
4.388 0.871932
4.392 0.085057
4.396 1.174331
4.400 2.195249
4.404 1.452545
4.408 0.294009
4.412 0.942591
4.416 2.040037
4.420 1.361029
4.424 0.019758
4.428 0.309745
4.432 1.554822
4.436 1.223670
4.440 -0.212531
4.444 -0.093703
4.448 1.329920
4.452 1.471535
4.456 0.181001
4.460 -0.113876
4.464 1.223707
4.468 1.662226
4.472 0.389711
4.476 -0.215752
4.480 0.944702
4.484 1.674298
4.488 0.585782
4.492 -0.297452
4.496 0.718749
4.500 1.724316
4.504 0.851988
4.508 -0.246481
4.512 0.511416
4.516 1.726474
4.520 1.159869
4.524 -0.097937
4.528 0.295626
4.532 1.599695
4.536 1.334827
4.540 -0.055942
4.544 0.025970
4.548 1.392452
4.552 1.460355
4.556 0.103467
4.560 -0.171909
4.564 1.139808
4.568 1.600740
4.572 0.327643
4.576 -0.290357
4.580 0.942145
4.584 1.676097
4.588 0.573679
4.592 -0.352154
4.596 0.665621
4.600 1.651896
4.604 0.753598
4.608 -0.358841
4.612 0.343527
4.616 1.587005
4.620 1.004869
4.624 -0.308379
4.628 0.066695
4.632 1.434801
4.636 1.157967
4.640 -0.222084
4.644 -0.151872
4.648 1.202729
4.652 1.328032
4.656 -0.040399
4.660 -0.303189
4.664 1.010212
4.668 1.405639
4.672 0.132055
4.676 -0.446338
4.680 0.719758
4.684 1.491586
4.688 0.355625
4.692 -0.489516
4.696 0.516574
4.700 1.527443
4.704 0.697317
4.708 -0.392697
4.712 0.292785
4.716 1.523139
4.720 0.906051
4.724 -0.357297
4.728 0.068669
4.732 1.342447
4.736 1.090902
4.740 -0.276859
4.744 -0.191630
4.748 1.173442
4.752 1.242717
4.756 -0.112460
4.760 -0.347160
4.764 0.959653
4.768 1.389815
4.772 0.075469
4.776 -0.508755
4.780 0.703441
4.784 1.405886
4.788 0.271249
4.792 -0.603522
4.796 0.404328
4.800 1.379113
4.804 0.547223
4.808 -0.579657
4.812 0.141281
4.816 1.322608
4.820 0.766181
4.824 -0.504459
4.828 -0.091033
4.832 1.246200
4.836 0.952899
4.840 -0.365521
4.844 -0.291898
4.848 1.089495
4.852 1.184691
4.856 -0.155126
4.860 -0.400093
4.864 0.886320
4.868 1.350936
4.872 0.082162
4.876 -0.565245
4.880 0.620470
4.884 1.361529
4.888 0.278626
4.892 -0.584956
4.896 0.402874
4.900 1.384201
4.904 0.549278
4.908 -0.547655
4.912 0.140189
4.916 1.330664
4.920 0.754340
4.924 -0.471163
4.928 -0.045099
4.932 1.311595
4.936 1.028378
4.940 -0.356921
4.944 -0.252994
4.948 1.110418
4.952 1.195923
4.956 -0.119934
4.960 -0.412723
4.964 0.915927
4.968 1.343579
4.972 0.075569
4.976 -0.487746
4.980 0.693747
4.984 1.428554
4.988 0.364751
4.992 -0.529063
4.996 0.446709
5.000 1.503551
5.004 0.634962
5.008 -0.466744
5.012 0.264132
5.016 1.497998
5.020 0.912723
5.024 -0.399644
5.028 0.070150
5.032 1.405606
5.036 1.144762
5.040 -0.253322
5.044 -0.138935
5.048 1.278233
5.052 1.323123
5.056 -0.046156
5.060 -0.268147
5.064 1.046084
5.068 1.474213
5.072 0.206335
5.076 -0.408182
5.080 0.774246
5.084 1.491783
5.088 0.428920
5.092 -0.470478
5.096 0.565643
5.100 1.553786
5.104 0.715809
5.108 -0.393051
5.112 0.350405
5.116 1.553048
5.120 0.971422
5.124 -0.267023
5.128 0.141761
5.132 1.471785
5.136 1.212795
5.140 -0.163823
5.144 -0.061530
5.148 1.299915
5.152 1.413481
5.156 0.016900
5.160 -0.206085
5.164 1.107213
5.168 1.568957
5.172 0.308661
5.176 -0.308165
5.180 0.939311
5.184 1.653416
5.188 0.538762
5.192 -0.311180
5.196 0.647579
5.200 1.627946
5.204 0.768149
5.208 -0.326443
5.212 0.392976
5.216 1.600047
5.220 1.020393
5.224 -0.257101
5.228 0.203880
5.232 1.544468
5.236 1.289792
5.240 -0.075280
5.244 -0.052024
5.248 1.325345
5.252 1.428478
5.256 0.017581
5.260 -0.221695
5.264 1.119686
5.268 1.538897
5.272 0.249791
5.276 -0.318085
5.280 0.846085
5.284 1.625638
5.288 0.522454
5.292 -0.342042
5.296 0.609825
5.300 1.609225
5.304 0.741358
5.308 -0.429624
5.312 0.355394
5.316 1.528692
5.320 0.886875
5.324 -0.363171
5.328 -0.005972
5.332 1.316365
5.336 1.045670
5.340 -0.299850
5.344 -0.253325
5.348 1.176139
5.352 1.243817
5.356 -0.081441
5.360 -0.342080
5.364 0.946674
5.368 1.329841
5.372 0.072373
5.376 -0.510115
5.380 0.700721
5.384 1.430750
5.388 0.329432
5.392 -0.519692
5.396 0.430968
5.400 1.415329
5.404 0.538717
5.408 -0.543925
5.412 0.209531
5.416 1.397103
5.420 0.844836
5.424 -0.447421
5.428 0.022816
5.432 1.395942
5.436 1.200625
5.440 -0.055154
5.444 0.105458
5.448 1.515996
5.452 1.663823
5.456 0.360506
5.460 0.043375
5.464 1.299954
5.468 1.627675
5.472 0.254522
5.476 -0.405996
5.480 0.705644
5.484 1.349484
5.488 0.157686
5.492 -0.762232
5.496 0.255054
5.500 1.309025
5.504 0.494818
5.508 -0.591187
5.512 0.167750
5.516 1.400773
5.520 0.774617
5.524 -0.464942
5.528 -0.019159
5.532 1.299996
5.536 1.061122
5.540 -0.332474
5.544 -0.194520
5.548 1.152624
5.552 1.296683
5.556 -0.100974
5.560 -0.309989
5.564 0.968966
5.568 1.416410
5.572 0.102067
5.576 -0.440248
5.580 0.761264
5.584 1.478950
5.588 0.352665
5.592 -0.477703
5.596 0.506503
5.600 1.453762
5.604 0.582137
5.608 -0.510015
5.612 0.212865
5.616 1.469406
5.620 0.906366
5.624 -0.360591
5.628 0.076340
5.632 1.392207
5.636 1.146286
5.640 -0.189284
5.644 -0.117523
5.648 1.245365
5.652 1.381809
5.656 0.004631
5.660 -0.179087
5.664 1.117540
5.668 1.523074
5.672 0.233668
5.676 -0.330878
5.680 0.919119
5.684 1.613717
5.688 0.529313
5.692 -0.344344
5.696 0.691314
5.700 1.651308
5.704 0.792221
5.708 -0.346819
5.712 0.372938
5.716 1.524935
5.720 0.990461
5.724 -0.318952
5.728 0.097985
5.732 1.494726
5.736 1.220697
5.740 -0.119148
5.744 -0.015306
5.748 1.358485
5.752 1.414071
5.756 0.083352
5.760 -0.158356
5.764 1.211631
5.768 1.621666
5.772 0.358838
5.776 -0.291429
5.780 0.900898
5.784 1.625250
5.788 0.564134
5.792 -0.305173
5.796 0.715093
5.800 1.731065
5.804 0.850657
5.808 -0.241022
5.812 0.449069
5.816 1.622125
5.820 1.041159
5.824 -0.273649
5.828 0.140116
5.832 1.470238
5.836 1.231783
5.840 -0.149389
5.844 -0.027828
5.848 1.356228
5.852 1.422564
5.856 0.069615
5.860 -0.181631
5.864 1.107747
5.868 1.533183
5.872 0.194348
5.876 -0.355990
5.880 0.814693
5.884 1.533875
5.888 0.410853
5.892 -0.459964
5.896 0.512267
5.900 1.501450
5.904 0.605089
5.908 -0.542995
5.912 0.201718
5.916 1.430415
5.920 0.850738
5.924 -0.400375
5.928 0.018850
5.932 1.379154
5.936 1.129823
5.940 -0.208162
5.944 -0.119676
5.948 1.251177
5.952 1.366108
5.956 -0.017529
5.960 -0.262147
5.964 1.081455
5.968 1.491246
5.972 0.201436
5.976 -0.389674
5.980 0.807845
5.984 1.533573
5.988 0.406390
5.992 -0.466096
5.996 0.537659
6.000 1.569522
6.004 0.649908
6.008 -0.419863
6.012 0.319442
6.016 1.537634
6.020 0.977023
6.024 -0.297845
6.028 0.109968
6.032 1.465130
6.036 1.263110
6.040 -0.071122
6.044 -0.013413
6.048 1.407055
6.052 1.422074
6.056 0.067312
6.060 -0.145086
6.064 1.147981
6.068 1.584747
6.072 0.272883
6.076 -0.288027
6.080 0.926359
6.084 1.657439
6.088 0.577760
6.092 -0.255179
6.096 0.701456
6.100 1.730642
6.104 0.857140
6.108 -0.255335
6.112 0.483018
6.116 1.717786
6.120 1.103433
6.124 -0.163431
6.128 0.283673
6.132 1.584075
6.136 1.328312
6.140 -0.035309
6.144 0.044160
6.148 1.415425
6.152 1.482522
6.156 0.073098
6.160 -0.158588
6.164 1.167412
6.168 1.623410
6.172 0.322096
6.176 -0.270406
6.180 0.914374
6.184 1.610137
6.188 0.550078
6.192 -0.315904
6.196 0.698640
6.200 1.716505
6.204 0.860826
6.208 -0.271426
6.212 0.449950
6.216 1.671359
6.220 1.086222
6.224 -0.164976
6.228 0.225123
6.232 1.536581
6.236 1.254290
6.240 -0.103088
6.244 -0.021949
6.248 1.352631
6.252 1.432538
6.256 0.055390
6.260 -0.209956
6.264 1.131676
6.268 1.576507
6.272 0.288511
6.276 -0.279353
6.280 0.948313
6.284 1.673485
6.288 0.553469
6.292 -0.281119
6.296 0.697925
6.300 1.741348
6.304 0.831778
6.308 -0.294945
6.312 0.452770
6.316 1.638868
6.320 1.069982
6.324 -0.218416
6.328 0.219658
6.332 1.571543
6.336 1.370425
6.340 -0.030457
6.344 0.050479
6.348 1.485568
6.352 1.516947
6.356 0.186087
6.360 -0.103456
6.364 1.196814
6.368 1.644655
6.372 0.344381
6.376 -0.235599
6.380 0.938345
6.384 1.717558
6.388 0.562242
6.392 -0.296529
6.396 0.667700
6.400 1.653735
6.404 0.785681
6.408 -0.348931
6.412 0.395512
6.416 1.626529
6.420 1.035069
6.424 -0.256226
6.428 0.206620
6.432 1.544855
6.436 1.226094
6.440 -0.120750
6.444 -0.055874
6.448 1.267021
6.452 1.375016
6.456 -0.040136
6.460 -0.286454
6.464 1.040399
6.468 1.440801
6.472 0.188340
6.476 -0.431255
6.480 0.856062
6.484 1.701516
6.488 0.641384
6.492 -0.086614
6.496 0.966063
6.500 2.010816
6.504 1.221302
6.508 0.037861
6.512 0.673399
6.516 1.784536
6.520 1.165488
6.524 -0.230189
6.528 0.080734
6.532 1.301335
6.536 0.975772
6.540 -0.497831
6.544 -0.362067
6.548 1.049424
6.552 1.193563
6.556 -0.153213
6.560 -0.399544
6.564 0.933360
6.568 1.362683
6.572 0.103591
6.576 -0.469289
6.580 0.700937
6.584 1.429885
6.588 0.285219
6.592 -0.567639
6.596 0.430237
6.600 1.403003
6.604 0.517163
6.608 -0.622322
6.612 0.106856
6.616 1.336662
6.620 0.703272
6.624 -0.572073
6.628 -0.168604
6.632 1.210486
6.636 0.933207
6.640 -0.384458
6.644 -0.331387
6.648 1.089995
6.652 1.163988
6.656 -0.210206
6.660 -0.473369
6.664 0.914733
6.668 1.315051
6.672 0.085728
6.676 -0.487231
6.680 0.713118
6.684 1.460643
6.688 0.359084
6.692 -0.499081
6.696 0.503980
6.700 1.531683
6.704 0.665094
6.708 -0.471915
6.712 0.263994
6.716 1.451116
6.720 0.877575
6.724 -0.443458
6.728 0.029212
6.732 1.337435
6.736 1.090108
6.740 -0.288225
6.744 -0.234234
6.748 1.151526
6.752 1.246263
6.756 -0.073484
6.760 -0.325221
6.764 0.986942
6.768 1.363985
6.772 0.090560
6.776 -0.485591
6.780 0.718350
6.784 1.478955
6.788 0.359758
6.792 -0.540100
6.796 0.473505
6.800 1.488758
6.804 0.582525
6.808 -0.523000
6.812 0.204787
6.816 1.398066
6.820 0.835736
6.824 -0.482911
6.828 -0.044149
6.832 1.298912
6.836 1.044854
6.840 -0.292545
6.844 -0.212769
6.848 1.176286
6.852 1.244919
6.856 -0.161124
6.860 -0.433656
6.864 0.904589
6.868 1.347396
6.872 0.074114
6.876 -0.506259
6.880 0.721170
6.884 1.439138
6.888 0.309382
6.892 -0.538581
6.896 0.475105
6.900 1.468190
6.904 0.540600
6.908 -0.502755
6.912 0.254952
6.916 1.385980
6.920 0.783798
6.924 -0.508838
6.928 -0.094506
6.932 1.285815
6.936 0.999606
6.940 -0.396776
6.944 -0.306457
6.948 1.087661
6.952 1.151779
6.956 -0.166595
6.960 -0.427138
6.964 0.949302
6.968 1.389715
6.972 0.113220
6.976 -0.471710
6.980 0.753802
6.984 1.504837
6.988 0.369093
6.992 -0.470936
6.996 0.463394
7.000 1.490901
7.004 0.627440
7.008 -0.478538
7.012 0.259806
7.016 1.458127
7.020 0.891393
7.024 -0.329292
7.028 0.071067
7.032 1.341121
7.036 1.109115
7.040 -0.277827
7.044 -0.185114
7.048 1.140640
7.052 1.273671
7.056 -0.108053
7.060 -0.371304
7.064 0.949193
7.068 1.324348
7.072 0.026617
7.076 -0.533705
7.080 0.680448
7.084 1.439397
7.088 0.322368
7.092 -0.518691
7.096 0.442592
7.100 1.440142
7.104 0.553241
7.108 -0.562650
7.112 0.165584
7.116 1.366439
7.120 0.838577
7.124 -0.464958
7.128 -0.067560
7.132 1.283452
7.136 1.029542
7.140 -0.344202
7.144 -0.235435
7.148 1.129724
7.152 1.244683
7.156 -0.127555
7.160 -0.428790
7.164 0.926605
7.168 1.334462
7.172 0.086607
7.176 -0.546872
7.180 0.669006
7.184 1.364697
7.188 0.282859
7.192 -0.589566
7.196 0.387565
7.200 1.398884
7.204 0.559595
7.208 -0.585242
7.212 0.162247
7.216 1.339347
7.220 0.776520
7.224 -0.494305
7.228 -0.022554
7.232 1.287216
7.236 1.018768
7.240 -0.358447
7.244 -0.221364
7.248 1.141212
7.252 1.227537
7.256 -0.135581
7.260 -0.379309
7.264 0.925272
7.268 1.357189
7.272 0.099502
7.276 -0.552177
7.280 0.685010
7.284 1.408783
7.288 0.258746
7.292 -0.654693
7.296 0.373075
7.300 1.359967
7.304 0.508634
7.308 -0.597054
7.312 0.153470
7.316 1.351212
7.320 0.782152
7.324 -0.489654
7.328 -0.075160
7.332 1.248364
7.336 1.024841
7.340 -0.356002
7.344 -0.237149
7.348 1.111505
7.352 1.224900
7.356 -0.133824
7.360 -0.438324
7.364 0.880164
7.368 1.297241
7.372 0.051978
7.376 -0.492739
7.380 0.703315
7.384 1.415350
7.388 0.288589
7.392 -0.572930
7.396 0.410975
7.400 1.452019
7.404 0.539337
7.408 -0.558752
7.412 0.162569
7.416 1.389893
7.420 0.809329
7.424 -0.485598
7.428 -0.076280
7.432 1.239358
7.436 0.986092
7.440 -0.398064
7.444 -0.292160
7.448 1.034071
7.452 1.116408
7.456 -0.249434
7.460 -0.471210
7.464 0.869704
7.468 1.270737
7.472 -0.038423
7.476 -0.597564
7.480 0.564816
7.484 1.296299
7.488 0.139880
7.492 -0.740618
7.496 0.278034
7.500 1.209178
7.504 0.363222
7.508 -0.771511
7.512 -0.077089
7.516 1.102464
7.520 0.523815
7.524 -0.716138
7.528 -0.279237
7.532 1.052085
7.536 0.901443
7.540 -0.377271
7.544 -0.172436
7.548 1.243951
7.552 1.415566
7.556 0.120099
7.560 -0.025034
7.564 1.202441
7.568 1.536433
7.572 0.160237
7.576 -0.524475
7.580 0.588216
7.584 1.231064
7.588 0.018854
7.592 -0.935883
7.596 -0.030539
7.600 1.004157
7.604 0.158047
7.608 -0.888348
7.612 -0.155478
7.616 1.045792
7.620 0.477867
7.624 -0.756912
7.628 -0.353898
7.632 0.957966
7.636 0.694477
7.640 -0.650250
7.644 -0.573044
7.648 0.809952
7.652 0.894863
7.656 -0.494059
7.660 -0.742734
7.664 0.542465
7.668 0.967991
7.672 -0.340135
7.676 -0.906343
7.680 0.280708
7.684 1.022408
7.688 -0.076306
7.692 -0.903429
7.696 0.095008
7.700 1.121547
7.704 0.212976
7.708 -0.881815
7.712 -0.139141
7.716 1.015062
7.720 0.499865
7.724 -0.829533
7.728 -0.401842
7.732 0.962675
7.736 0.679528
7.740 -0.702847
7.744 -0.567459
7.748 0.815391
7.752 0.929692
7.756 -0.408067
7.760 -0.713299
7.764 0.611690
7.768 1.042293
7.772 -0.283211
7.776 -0.851682
7.780 0.325130
7.784 1.105422
7.788 -0.034801
7.792 -0.903550
7.796 0.083571
7.800 1.070527
7.804 0.195314
7.808 -0.936526
7.812 -0.189590
7.816 0.979734
7.820 0.373136
7.824 -0.892252
7.828 -0.462491
7.832 0.836243
7.836 0.590365
7.840 -0.778103
7.844 -0.646622
7.848 0.738503
7.852 0.852134
7.856 -0.521406
7.860 -0.804937
7.864 0.583605
7.868 1.010620
7.872 -0.286588
7.876 -0.864082
7.880 0.345200
7.884 1.095266
7.888 -0.025252
7.892 -0.883735
7.896 0.124352
7.900 1.116938
7.904 0.248929
7.908 -0.869966
7.912 -0.106879
7.916 1.099237
7.920 0.531446
7.924 -0.748437
7.928 -0.281343
7.932 1.034991
7.936 0.731006
7.940 -0.621554
7.944 -0.496118
7.948 0.835914
7.952 0.914887
7.956 -0.406463
7.960 -0.672620
7.964 0.659012
7.968 1.114530
7.972 -0.185065
7.976 -0.761272
7.980 0.425592
7.984 1.191279
7.988 0.064030
7.992 -0.810709
7.996 0.202910
8.000 1.212268
8.004 0.341449
8.008 -0.731447
8.012 -0.041483
8.016 1.126367
8.020 0.520953
8.024 -0.774013
8.028 -0.342650
8.032 0.980228
8.036 0.731158
8.040 -0.591495
8.044 -0.508350
8.048 0.814357
8.052 0.945028
8.056 -0.396572
8.060 -0.646283
8.064 0.679301
8.068 1.077106
8.072 -0.202977
8.076 -0.748347
8.080 0.421907
8.084 1.168408
8.088 0.018553
8.092 -0.831960
8.096 0.171762
8.100 1.148926
8.104 0.299734
8.108 -0.778338
8.112 -0.032223
8.116 1.137750
8.120 0.549655
8.124 -0.687731
8.128 -0.324948
8.132 1.030705
8.136 0.735003
8.140 -0.581598
8.144 -0.477928
8.148 0.885617
8.152 1.005594
8.156 -0.361712
8.160 -0.571783
8.164 0.735102
8.168 1.135092
8.172 -0.146268
8.176 -0.708233
8.180 0.466996
8.184 1.256944
8.188 0.117067
8.192 -0.771647
8.196 0.222400
8.200 1.185380
8.204 0.321018
8.208 -0.810057
8.212 -0.048566
8.216 1.131554
8.220 0.541498
8.224 -0.695624
8.228 -0.303261
8.232 1.034716
8.236 0.773224
8.240 -0.574560
8.244 -0.515208
8.248 0.818460
8.252 0.938140
8.256 -0.456464
8.260 -0.744915
8.264 0.612060
8.268 1.036532
8.272 -0.213142
8.276 -0.822746
8.280 0.326890
8.284 1.080846
8.288 -0.006929
8.292 -0.873827
8.296 0.078010
8.300 1.082089
8.304 0.261475
8.308 -0.864920
8.312 -0.109088
8.316 1.098842
8.320 0.525537
8.324 -0.753244
8.328 -0.376447
8.332 1.008840
8.336 0.745799
8.340 -0.607260
8.344 -0.496325
8.348 0.863104
8.352 0.923045
8.356 -0.409366
8.360 -0.678491
8.364 0.622669
8.368 1.041705
8.372 -0.170574
8.376 -0.772083
8.380 0.427902
8.384 1.193415
8.388 0.052804
8.392 -0.832003
8.396 0.150448
8.400 1.170687
8.404 0.330467
8.408 -0.789765
8.412 -0.092087
8.416 1.080708
8.420 0.477289
8.424 -0.818824
8.428 -0.412375
8.432 0.911754
8.436 0.668854
8.440 -0.730416
8.444 -0.636304
8.448 0.766941
8.452 0.839895
8.456 -0.488894
8.460 -0.759981
8.464 0.560185
8.468 0.990823
8.472 -0.315521
8.476 -0.933863
8.480 0.253599
8.484 0.993839
8.488 -0.093248
8.492 -1.000476
8.496 -0.029726
8.500 0.984910
8.504 0.097805
8.508 -0.974485
8.512 -0.277888
8.516 0.967758
8.520 0.359657
8.524 -0.903582
8.528 -0.458620
8.532 0.837665
8.536 0.579381
8.540 -0.769053
8.544 -0.720870
8.548 0.677254
8.552 0.739725
8.556 -0.645677
8.560 -0.895100
8.564 0.413866
8.568 0.798678
8.572 -0.443855
8.576 -1.009830
8.580 0.191254
8.584 0.948215
8.588 -0.142389
8.592 -0.975380
8.596 0.082926
8.600 1.168102
8.604 0.381729
8.608 -0.657049
8.612 0.173236
8.616 1.414859
8.620 0.766406
8.624 -0.557796
8.628 -0.253837
8.632 1.015740
8.636 0.648383
8.640 -0.764329
8.644 -0.764037
8.648 0.509788
8.652 0.511966
8.656 -0.806639
8.660 -1.058341
8.664 0.321998
8.668 0.810468
8.672 -0.479006
8.676 -1.060524
8.680 0.102539
8.684 0.890316
8.688 -0.270496
8.692 -1.156750
8.696 -0.138848
8.700 0.907784
8.704 0.064997
8.708 -1.057127
8.712 -0.333285
8.716 0.838312
8.720 0.249096
8.724 -0.989239
8.728 -0.587919
8.732 0.728401
8.736 0.449685
8.740 -0.953584
8.744 -0.820887
8.748 0.556637
8.752 0.690585
8.756 -0.669620
8.760 -0.925738
8.764 0.426146
8.768 0.831948
8.772 -0.454102
8.776 -1.020817
8.780 0.197913
8.784 0.921007
8.788 -0.165201
8.792 -1.034026
8.796 -0.051107
8.800 0.925957
8.804 0.082382
8.808 -0.982991
8.812 -0.242767
8.816 0.920843
8.820 0.358853
8.824 -0.861523
8.828 -0.491421
8.832 0.837869
8.836 0.563669
8.840 -0.784159
8.844 -0.701698
8.848 0.659054
8.852 0.732886
8.856 -0.683756
8.860 -0.935088
8.864 0.414237
8.868 0.859793
8.872 -0.427257
8.876 -0.995307
8.880 0.150580
8.884 0.898420
8.888 -0.246724
8.892 -1.117571
8.896 -0.121444
8.900 0.833345
8.904 -0.034915
8.908 -1.106493
8.912 -0.393686
8.916 0.794179
8.920 0.179925
8.924 -1.086533
8.928 -0.721758
8.932 0.612201
8.936 0.414184
8.940 -0.991597
8.944 -0.907004
8.948 0.431782
8.952 0.518556
8.956 -0.811381
8.960 -1.111295
8.964 0.233065
8.968 0.704668
8.972 -0.570297
8.976 -1.209984
8.980 0.004876
8.984 0.767625
8.988 -0.340410
8.992 -1.220087
8.996 -0.191633
9.000 0.838359
9.004 -0.017632
9.008 -1.129158
9.012 -0.382273
9.016 0.835012
9.020 0.284150
9.024 -0.987352
9.028 -0.585099
9.032 0.725645
9.036 0.498041
9.040 -0.872692
9.044 -0.741653
9.048 0.652270
9.052 0.748134
9.056 -0.589509
9.060 -0.834039
9.064 0.446181
9.068 0.892469
9.072 -0.380129
9.076 -0.997872
9.080 0.194682
9.084 0.944932
9.088 -0.179768
9.092 -1.020938
9.096 -0.000833
9.100 1.015995
9.104 0.135257
9.108 -1.017637
9.112 -0.275340
9.116 0.932308
9.120 0.345964
9.124 -0.949074
9.128 -0.509144
9.132 0.805131
9.136 0.555772
9.140 -0.838881
9.144 -0.735271
9.148 0.667541
9.152 0.752061
9.156 -0.614716
9.160 -0.855246
9.164 0.440486
9.168 0.844204
9.172 -0.415482
9.176 -1.053196
9.180 0.167697
9.184 0.888057
9.188 -0.234276
9.192 -1.068183
9.196 -0.090503
9.200 0.896776
9.204 0.022860
9.208 -1.084824
9.212 -0.384483
9.216 0.817985
9.220 0.272327
9.224 -1.052051
9.228 -0.613536
9.232 0.707275
9.236 0.452472
9.240 -0.890099
9.244 -0.825084
9.248 0.568002
9.252 0.627125
9.256 -0.685693
9.260 -0.924753
9.264 0.377422
9.268 0.783077
9.272 -0.445416
9.276 -1.037255
9.280 0.199178
9.284 0.901513
9.288 -0.187345
9.292 -1.028040
9.296 -0.097836
9.300 0.933284
9.304 0.049017
9.308 -1.105704
9.312 -0.374136
9.316 0.788037
9.320 0.214475
9.324 -1.025036
9.328 -0.567842
9.332 0.697169
9.336 0.473481
9.340 -0.940825
9.344 -0.816288
9.348 0.540567
9.352 0.598964
9.356 -0.772317
9.360 -1.031013
9.364 0.317197
9.368 0.748670
9.372 -0.478404
9.376 -1.106074
9.380 0.099551
9.384 0.822904
9.388 -0.283550
9.392 -1.119630
9.396 -0.108030
9.400 0.843642
9.404 -0.004499
9.408 -1.068735
9.412 -0.327085
9.416 0.894988
9.420 0.302133
9.424 -0.957359
9.428 -0.548756
9.432 0.764934
9.436 0.511404
9.440 -0.817577
9.444 -0.743448
9.448 0.628460
9.452 0.740601
9.456 -0.633962
9.460 -0.866376
9.464 0.471935
9.468 0.885130
9.472 -0.358606
9.476 -0.960442
9.480 0.252782
9.484 1.013815
9.488 -0.112126
9.492 -0.979723
9.496 0.025504
9.500 0.996101
9.504 0.154178
9.508 -0.918330
9.512 -0.184839
9.516 1.028098
9.520 0.424143
9.524 -0.873068
9.528 -0.444167
9.532 0.850749
9.536 0.534370
9.540 -0.853525
9.544 -0.755493
9.548 0.621594
9.552 0.713333
9.556 -0.673411
9.560 -0.904019
9.564 0.461395
9.568 0.870310
9.572 -0.365424
9.576 -0.962329
9.580 0.266874
9.584 0.947368
9.588 -0.187407
9.592 -1.021376
9.596 -0.039987
9.600 0.958606
9.604 0.069758
9.608 -1.055988
9.612 -0.329016
9.616 0.919027
9.620 0.265017
9.624 -0.954595
9.628 -0.513545
9.632 0.912113
9.636 0.718238
9.640 -0.557147
9.644 -0.363050
9.648 1.053678
9.652 1.205269
9.656 -0.071228
9.660 -0.376654
9.664 0.812066
9.668 1.167025
9.672 -0.176364
9.676 -0.809448
9.680 0.280700
9.684 0.976448
9.688 -0.174612
9.692 -1.107594
9.696 -0.086982
9.700 0.945360
9.704 0.108592
9.708 -0.974142
9.712 -0.258152
9.716 0.905153
9.720 0.365222
9.724 -0.905544
9.728 -0.494679
9.732 0.801301
9.736 0.547050
9.740 -0.798888
9.744 -0.720723
9.748 0.691662
9.752 0.759559
9.756 -0.539785
9.760 -0.853638
9.764 0.498631
9.768 0.907328
9.772 -0.411013
9.776 -1.008230
9.780 0.255160
9.784 0.985752
9.788 -0.095255
9.792 -0.995545
9.796 -0.004029
9.800 1.029252
9.804 0.170097
9.808 -0.934452
9.812 -0.217533
9.816 1.030494
9.820 0.475675
9.824 -0.786198
9.828 -0.352230
9.832 0.959999
9.836 0.674044
9.840 -0.669175
9.844 -0.543084
9.848 0.796194
9.852 0.857070
9.856 -0.485936
9.860 -0.720181
9.864 0.574923
9.868 0.940610
9.872 -0.336076
9.876 -0.916534
9.880 0.266660
9.884 1.011205
9.888 -0.153100
9.892 -1.036421
9.896 -0.053462
9.900 0.949972
9.904 0.041725
9.908 -1.073895
9.912 -0.317922
9.916 0.913623
9.920 0.273527
9.924 -1.011789
9.928 -0.558320
9.932 0.757402
9.936 0.500968
9.940 -0.877712
9.944 -0.755359
9.948 0.615203
9.952 0.698051
9.956 -0.658686
9.960 -0.921791
9.964 0.422898
9.968 0.792551
9.972 -0.452048
9.976 -1.020359
9.980 0.181648
9.984 0.929354
9.988 -0.168342
9.992 -1.016528
9.996 -0.016750
10.000 0.977140
10.004 0.104667
10.008 -1.013897
10.012 -0.225727
10.016 0.983923
10.020 0.374865
10.024 -0.883602
10.028 -0.418890
10.032 0.871001
10.036 0.639508
10.040 -0.772859
10.044 -0.664873
10.048 0.707882
10.052 0.802928
10.056 -0.559391
10.060 -0.842593
10.064 0.474786
10.068 0.959462
10.072 -0.322829
10.076 -0.886084
10.080 0.302735
10.084 1.021539
10.088 -0.093100
10.092 -0.918871
10.096 0.071299
10.100 1.052912
10.104 0.214150
10.108 -0.897764
10.112 -0.205950
10.116 0.996947
10.120 0.455016
10.124 -0.876168
10.128 -0.428270
10.132 0.930002
10.136 0.677658
10.140 -0.666782
10.144 -0.596737
10.148 0.779861
10.152 0.865395
10.156 -0.513791
10.160 -0.765381
10.164 0.589251
10.168 1.042524
10.172 -0.234463
10.176 -0.844361
10.180 0.384467
10.184 1.062807
10.188 -0.060296
10.192 -0.945192
10.196 0.029106
10.200 1.050574
10.204 0.152327
10.208 -0.947929
10.212 -0.256938
10.216 0.954419
10.220 0.391872
10.224 -0.910306
10.228 -0.493313
10.232 0.843466
10.236 0.591735
10.240 -0.778818
10.244 -0.679672
10.248 0.756194
10.252 0.830609
10.256 -0.521745
10.260 -0.830778
10.264 0.461835
10.268 0.933059
10.272 -0.314139
10.276 -0.926194
10.280 0.244404
10.284 0.980286
10.288 -0.134811
10.292 -1.014472
10.296 -0.030678
10.300 0.940985
10.304 0.054649
10.308 -1.031829
10.312 -0.307224
10.316 0.882319
10.320 0.338758
10.324 -0.905263
10.328 -0.486186
10.332 0.830938
10.336 0.574833
10.340 -0.730133
10.344 -0.690755
10.348 0.714074
10.352 0.797530
10.356 -0.582157
10.360 -0.828580
10.364 0.460709
10.368 0.911045
10.372 -0.393886
10.376 -0.951054
10.380 0.242866
10.384 0.969010
10.388 -0.105667
10.392 -0.949604
10.396 0.047002
10.400 1.002021
10.404 0.138831
10.408 -1.009008
10.412 -0.294380
10.416 0.942708
10.420 0.352527
10.424 -0.947588
10.428 -0.460843
10.432 0.798442
10.436 0.600169
10.440 -0.794414
10.444 -0.661885
10.448 0.691541
10.452 0.748833
10.456 -0.603409
10.460 -0.864361
10.464 0.427083
10.468 0.823680
10.472 -0.434439
10.476 -1.039521
10.480 0.138342
10.484 0.848859
10.488 -0.231378
10.492 -1.109538
10.496 -0.080178
10.500 0.873533
10.504 0.062764
10.508 -1.073533
10.512 -0.295613
10.516 0.925586
10.520 0.362104
10.524 -0.899150
10.528 -0.471397
10.532 0.807645
10.536 0.582144
10.540 -0.748596
10.544 -0.671063
10.548 0.680320
10.552 0.797188
10.556 -0.578117
10.560 -0.844174
10.564 0.481826
10.568 0.922360
10.572 -0.383442
10.576 -0.970975
10.580 0.207969
10.584 0.886566
10.588 -0.220884
10.592 -1.104365
10.596 -0.077857
10.600 0.932489
10.604 0.081415
10.608 -0.977731
10.612 -0.246030
10.616 0.991410
10.620 0.400896
10.624 -0.837523
10.628 -0.460271
10.632 0.865009
10.636 0.630750
10.640 -0.770077
10.644 -0.720942
10.648 0.653794
10.652 0.734148
10.656 -0.635690
10.660 -0.889689
10.664 0.474758
10.668 0.852619
10.672 -0.408326
10.676 -0.916326
10.680 0.415673
10.684 1.224615
10.688 0.142743
10.692 -0.630195
10.696 0.452081
10.700 1.534186
10.704 0.579203
10.708 -0.606048
10.712 0.086948
10.716 1.169779
10.720 0.515904
10.724 -0.828339
10.728 -0.512955
10.732 0.725049
10.736 0.382881
10.740 -0.953997
10.744 -0.801794
10.748 0.617792
10.752 0.795192
10.756 -0.571598
10.760 -0.846611
10.764 0.428906
10.768 0.860421
10.772 -0.455051
10.776 -1.016284
10.780 0.201493
10.784 0.893916
10.788 -0.161729
10.792 -1.037517
10.796 -0.029924
10.800 1.011595
10.804 0.114812
10.808 -0.967821
10.812 -0.249972
10.816 0.980364
10.820 0.337560
10.824 -0.915425
10.828 -0.447854
10.832 0.862683
10.836 0.572802
10.840 -0.824791
10.844 -0.727331
10.848 0.667526
10.852 0.772634
10.856 -0.609363
10.860 -0.846645
10.864 0.557202
10.868 0.992894
10.872 -0.315141
10.876 -0.898957
10.880 0.313906
10.884 1.059256
10.888 -0.050119
10.892 -0.883188
10.896 0.118348
10.900 1.109381
10.904 0.247812
10.908 -0.866166
10.912 -0.105598
10.916 1.077495
10.920 0.520979
10.924 -0.777901
10.928 -0.365390
10.932 0.903334
10.936 0.640072
10.940 -0.734883
10.944 -0.628179
10.948 0.712406
10.952 0.840664
10.956 -0.556546
10.960 -0.853017
10.964 0.492734
10.968 0.937632
10.972 -0.331956
10.976 -0.902013
10.980 0.343062
10.984 1.030956
10.988 -0.066004
10.992 -0.935170
10.996 0.054338
11.000 1.051182
11.004 0.150234
11.008 -0.942777
11.012 -0.193919
11.016 1.043474
11.020 0.462292
11.024 -0.817214
11.028 -0.422641
11.032 0.912438
11.036 0.657651
11.040 -0.693144
11.044 -0.576803
11.048 0.795122
11.052 0.874916
11.056 -0.498095
11.060 -0.728399
11.064 0.570496
11.068 1.053946
11.072 -0.250782
11.076 -0.837394
11.080 0.345490
11.084 1.112406
11.088 0.034005
11.092 -0.828147
11.096 0.137209
11.100 1.137542
11.104 0.260104
11.108 -0.854065
11.112 -0.115877
11.116 1.044282
11.120 0.468808
11.124 -0.830446
11.128 -0.393749
11.132 0.949671
11.136 0.701815
11.140 -0.665518
11.144 -0.585602
11.148 0.823610
11.152 0.938172
11.156 -0.439697
11.160 -0.661474
11.164 0.645918
11.168 1.075221
11.172 -0.153005
11.176 -0.694709
11.180 0.459765
11.184 1.163450
11.188 0.039210
11.192 -0.815165
11.196 0.191480
11.200 1.165219
11.204 0.312308
11.208 -0.823152
11.212 -0.073188
11.216 1.127318
11.220 0.520011
11.224 -0.724097
11.228 -0.326315
11.232 0.997346
11.236 0.793673
11.240 -0.593879
11.244 -0.498474
11.248 0.843919
11.252 0.953064
11.256 -0.374852
11.260 -0.652802
11.264 0.730674
11.268 1.158637
11.272 -0.122598
11.276 -0.672361
11.280 0.504152
11.284 1.225215
11.288 0.136578
11.292 -0.690792
11.296 0.275570
11.300 1.307032
11.304 0.407380
11.308 -0.716165
11.312 0.066525
11.316 1.284129
11.320 0.656373
11.324 -0.608065
11.328 -0.201295
11.332 1.110060
11.336 0.831958
11.340 -0.497844
11.344 -0.422320
11.348 0.990929
11.352 1.013376
11.356 -0.332081
11.360 -0.609228
11.364 0.745707
11.368 1.138652
11.372 -0.169248
11.376 -0.760847
11.380 0.457971
11.384 1.211495
11.388 0.110391
11.392 -0.795842
11.396 0.188984
11.400 1.197049
11.404 0.311548
11.408 -0.812135
11.412 -0.057765
11.416 1.136489
11.420 0.577387
11.424 -0.702021
11.428 -0.300527
11.432 1.090434
11.436 0.799548
11.440 -0.552979
11.444 -0.501677
11.448 0.841154
11.452 0.914725
11.456 -0.424167
11.460 -0.678502
11.464 0.673659
11.468 1.057721
11.472 -0.228635
11.476 -0.862289
11.480 0.355564
11.484 1.050891
11.488 -0.071300
11.492 -0.935673
11.496 0.045922
11.500 1.089998
11.504 0.177335
11.508 -0.928238
11.512 -0.177042
11.516 1.016358
11.520 0.421544
11.524 -0.830300
11.528 -0.419208
11.532 0.945357
11.536 0.664897
11.540 -0.694890
11.544 -0.574732
11.548 0.801232
11.552 0.875153
11.556 -0.455338
11.560 -0.722656
11.564 0.612103
11.568 1.013594
11.572 -0.263808
11.576 -0.829144
11.580 0.306342
11.584 1.001340
11.588 -0.065962
11.592 -0.950174
11.596 0.021296
11.600 1.019505
11.604 0.177435
11.608 -0.942979
11.612 -0.197996
11.616 0.976556
11.620 0.415782
11.624 -0.830016
11.628 -0.409791
11.632 0.894168
11.636 0.610393
11.640 -0.719152
11.644 -0.640641
11.648 0.693039
11.652 0.771232
11.656 -0.582304
11.660 -0.875524
11.664 0.439738
11.668 0.861662
11.672 -0.390407
11.676 -0.958855
11.680 0.205073
11.684 0.925544
11.688 -0.195056
11.692 -1.045071
11.696 -0.098964
11.700 0.919006
11.704 0.045699
11.708 -1.018404
11.712 -0.281906
11.716 1.015889
11.720 0.514798
11.724 -0.655907
11.728 -0.143550
11.732 1.234528
11.736 1.112687
11.740 -0.203644
11.744 -0.228618
11.748 1.055830
11.752 1.112884
11.756 -0.336088
11.760 -0.609284
11.764 0.588692
11.768 0.920508
11.772 -0.426722
11.776 -1.061557
11.780 0.152762
11.784 0.935727
11.788 -0.113883
11.792 -0.937370
11.796 0.040606
11.800 1.066068
11.804 0.170082
11.808 -0.962472
11.812 -0.238706
11.816 0.987570
11.820 0.356333
11.824 -0.889955
11.828 -0.484483
11.832 0.864776
11.836 0.573648
11.840 -0.739506
11.844 -0.657753
11.848 0.739508
11.852 0.769058
11.856 -0.572352
11.860 -0.832981
11.864 0.528479
11.868 0.899842
11.872 -0.345313
11.876 -0.939368
11.880 0.231121
11.884 0.987106
11.888 -0.131806
11.892 -0.999980
11.896 0.016008
11.900 1.045382
11.904 0.159677
11.908 -0.928895
11.912 -0.207655
11.916 1.027642
11.920 0.453361
11.924 -0.833544
11.928 -0.418396
11.932 0.885728
11.936 0.612488
11.940 -0.704345
11.944 -0.633212
11.948 0.685283
11.952 0.758010
11.956 -0.605119
11.960 -0.854041
11.964 0.483329
11.968 0.934345
11.972 -0.342501
11.976 -0.939901
11.980 0.203589
11.984 0.947331
11.988 -0.117312
11.992 -1.004186
11.996 -0.055469
12.000 0.934415
12.004 0.097208
12.008 -1.037499
12.012 -0.266942
12.016 0.961726
12.020 0.365143
12.024 -0.922488
12.028 -0.515313
12.032 0.813328
12.036 0.567385
12.040 -0.772340
12.044 -0.654314
12.048 0.688725
12.052 0.788288
12.056 -0.531783
12.060 -0.802545
12.064 0.499214
12.068 0.901600
12.072 -0.382392
12.076 -0.952489
12.080 0.270302
12.084 0.983884
12.088 -0.107004
12.092 -0.952410
12.096 -0.013805
12.100 1.029777
12.104 0.145935
12.108 -0.928523
12.112 -0.166313
12.116 1.022677
12.120 0.478827
12.124 -0.779115
12.128 -0.391624
12.132 0.895703
12.136 0.652163
12.140 -0.665963
12.144 -0.613625
12.148 0.805211
12.152 0.852109
12.156 -0.507649
12.160 -0.758613
12.164 0.556869
12.168 0.998247
12.172 -0.284873
12.176 -0.882796
12.180 0.354380
12.184 1.091521
12.188 -0.057747
12.192 -0.914282
12.196 0.020793
12.200 1.032305
12.204 0.134873
12.208 -0.969583
12.212 -0.187439
12.216 0.958547
12.220 0.393952
12.224 -0.854534
12.228 -0.433708
12.232 0.893981
12.236 0.676670
12.240 -0.679692
12.244 -0.601631
12.248 0.756410
12.252 0.830633
12.256 -0.540143
12.260 -0.812595
12.264 0.546064
12.268 1.005787
12.272 -0.289778
12.276 -0.920348
12.280 0.244064
12.284 0.983966
12.288 -0.100097
12.292 -0.982623
12.296 -0.018972
12.300 0.956137
12.304 0.056487
12.308 -1.019732
12.312 -0.274141
12.316 0.897152
12.320 0.288727
12.324 -0.940110
12.328 -0.525209
12.332 0.828119
12.336 0.563965
12.340 -0.742799
12.344 -0.699231
12.348 0.696326
12.352 0.810828
12.356 -0.556894
12.360 -0.796845
12.364 0.502732
12.368 0.967172
12.372 -0.307916
12.376 -0.882086
12.380 0.347078
12.384 1.103173
12.388 -0.021214
12.392 -0.941748
12.396 0.060620
12.400 1.069534
12.404 0.197604
12.408 -0.864197
12.412 -0.123415
12.416 1.060802
12.420 0.455153
12.424 -0.757680
12.428 -0.341667
12.432 1.003727
12.436 0.765572
12.440 -0.578021
12.444 -0.474618
12.448 0.840713
12.452 0.938626
12.456 -0.425798
12.460 -0.682741
12.464 0.648316
12.468 1.040533
12.472 -0.242969
12.476 -0.774666
12.480 0.430879
12.484 1.137445
12.488 0.041012
12.492 -0.787405
12.496 0.239286
12.500 1.221554
12.504 0.343515
12.508 -0.748554
12.512 -0.035102
12.516 1.169765
12.520 0.563471
12.524 -0.690415
12.528 -0.281216
12.532 1.055003
12.536 0.806479
12.540 -0.556074
12.544 -0.453776
12.548 0.920009
12.552 1.030136
12.556 -0.337440
12.560 -0.583407
12.564 0.673751
12.568 1.129640
12.572 -0.095223
12.576 -0.661303
12.580 0.500441
12.584 1.243544
12.588 0.109073
12.592 -0.708436
12.596 0.271167
12.600 1.255978
12.604 0.391722
12.608 -0.720750
12.612 0.012143
12.616 1.209469
12.620 0.640502
12.624 -0.663632
12.628 -0.219317
12.632 1.050863
12.636 0.828381
12.640 -0.530512
12.644 -0.430048
12.648 0.947280
12.652 1.016338
12.656 -0.363951
12.660 -0.659862
12.664 0.655515
12.668 1.099127
12.672 -0.182965
12.676 -0.783617
12.680 0.396265
12.684 1.093615
12.688 0.009585
12.692 -0.840932
12.696 0.164548
12.700 1.168145
12.704 0.267311
12.708 -0.824599
12.712 -0.102398
12.716 1.076062
12.720 0.500399
12.724 -0.773529
12.728 -0.329330
12.732 0.987761
12.736 0.715146
12.740 -0.658904
12.744 -0.592201
12.748 0.773556
12.752 0.855403
12.756 -0.553290
12.760 -0.780617
12.764 0.666501
12.768 1.173322
12.772 -0.026720
12.776 -0.539844
12.780 0.712797
12.784 1.515258
12.788 0.500217
12.792 -0.472374
12.796 0.429854
12.800 1.302802
12.804 0.366277
12.808 -0.880914
12.812 -0.251966
12.816 0.922895
12.820 0.284333
12.824 -1.108865
12.828 -0.633836
12.832 0.729015
12.836 0.537004
12.840 -0.760241
12.844 -0.677164
12.848 0.667421
12.852 0.735068
12.856 -0.609010
12.860 -0.874403
12.864 0.438492
12.868 0.838589
12.872 -0.417902
12.876 -0.971920
12.880 0.203145
12.884 0.900726
12.888 -0.216747
12.892 -1.084913
12.896 -0.075589
12.900 0.944137
12.904 0.059708
12.908 -1.034267
12.912 -0.335795
12.916 0.884890
12.920 0.310900
12.924 -0.936687
12.928 -0.523313
12.932 0.784090
12.936 0.548772
12.940 -0.846271
12.944 -0.743358
12.948 0.591710
12.952 0.744643
12.956 -0.607848
12.960 -0.870598
12.964 0.422110
12.968 0.878436
12.972 -0.379283
12.976 -0.962727
12.980 0.261222
12.984 0.992496
12.988 -0.074836
12.992 -0.969908
12.996 0.014571
13.000 1.003848
13.004 0.126774
13.008 -0.993654
13.012 -0.295678
13.016 0.929690
13.020 0.321515
13.024 -1.014902
13.028 -0.619521
13.032 0.681213
13.036 0.473263
13.040 -0.930993
13.044 -0.838817
13.048 0.505839
13.052 0.626241
13.056 -0.721862
13.060 -1.024881
13.064 0.292575
13.068 0.691484
13.072 -0.512058
13.076 -1.103160
13.080 0.045876
13.084 0.819198
13.088 -0.270103
13.092 -1.149521
13.096 -0.185959
13.100 0.835999
13.104 -0.024144
13.108 -1.151522
13.112 -0.425384
13.116 0.758939
13.120 0.182846
13.124 -1.084833
13.128 -0.628196
13.132 0.729808
13.136 0.499635
13.140 -0.864719
13.144 -0.759051
13.148 0.598344
13.152 0.718443
13.156 -0.653457
13.160 -0.882533
13.164 0.454332
13.168 0.904613
13.172 -0.356064
13.176 -0.969000
13.180 0.228902
13.184 0.906212
13.188 -0.179373
13.192 -1.034300
13.196 -0.030254
13.200 0.975051
13.204 0.108163
13.208 -0.972683
13.212 -0.199736
13.216 0.998972
13.220 0.395729
13.224 -0.832957
13.228 -0.427296
13.232 0.915521
13.236 0.698579
13.240 -0.687796
13.244 -0.584622
13.248 0.776893
13.252 0.825460
13.256 -0.556262
13.260 -0.785996
13.264 0.546238
13.268 0.975029
13.272 -0.329524
13.276 -0.902777
13.280 0.325290
13.284 1.051156
13.288 -0.059850
13.292 -0.933666
13.296 0.043395
13.300 1.057125
13.304 0.227136
13.308 -0.870663
13.312 -0.121994
13.316 1.068672
13.320 0.466839
13.324 -0.760762
13.328 -0.343367
13.332 0.955814
13.336 0.696664
13.340 -0.613317
13.344 -0.549592
13.348 0.813533
13.352 0.903548
13.356 -0.463097
13.360 -0.700763
13.364 0.671257
13.368 1.057915
13.372 -0.189072
13.376 -0.761352
13.380 0.481209
13.384 1.174104
13.388 0.091065
13.392 -0.761631
13.396 0.275642
13.400 1.217117
13.404 0.360592
13.408 -0.757327
13.412 0.003005
13.416 1.205732
13.420 0.627588
13.424 -0.617457
13.428 -0.206848
13.432 1.161942
13.436 0.862869
13.440 -0.450393
13.444 -0.388443
13.448 0.946681
13.452 1.041953
13.456 -0.318084
13.460 -0.537302
13.464 0.741913
13.468 1.201000
13.472 -0.068497
13.476 -0.637409
13.480 0.549029
13.484 1.336654
13.488 0.213677
13.492 -0.639410
13.496 0.353682
13.500 1.329772
13.504 0.458030
13.508 -0.639578
13.512 0.087034
13.516 1.332994
13.520 0.711129
13.524 -0.539442
13.528 -0.166481
13.532 1.182105
13.536 0.920755
13.540 -0.426149
13.544 -0.364835
13.548 1.051252
13.552 1.131701
13.556 -0.263472
13.560 -0.517468
13.564 0.801946
13.568 1.223041
13.572 -0.023572
13.576 -0.597652
13.580 0.595953
13.584 1.356809
13.588 0.200517
13.592 -0.658141
13.596 0.302052
13.600 1.308044
13.604 0.451604
13.608 -0.680033
13.612 0.046745
13.616 1.206188
13.620 0.694213
13.624 -0.574835
13.628 -0.181019
13.632 1.107791
13.636 0.889543
13.640 -0.469743
13.644 -0.381094
13.648 1.000533
13.652 1.089469
13.656 -0.246070
13.660 -0.442831
13.664 0.901163
13.668 1.317981
13.672 0.042954
13.676 -0.531205
13.680 0.652044
13.684 1.396702
13.688 0.296161
13.692 -0.575562
13.696 0.411234
13.700 1.419642
13.704 0.591098
13.708 -0.564193
13.712 0.185330
13.716 1.408690
13.720 0.790846
13.724 -0.471209
13.728 -0.080957
13.732 1.246177
13.736 0.961290
13.740 -0.364415
13.744 -0.278747
13.748 1.100687
13.752 1.154286
13.756 -0.182789
13.760 -0.443929
13.764 0.893917
13.768 1.325573
13.772 0.077592
13.776 -0.547790
13.780 0.670826
13.784 1.451520
13.788 0.269507
13.792 -0.595039
13.796 0.382704
13.800 1.375984
13.804 0.539478
13.808 -0.586737
13.812 0.155845
13.816 1.377486
13.820 0.773153
13.824 -0.399078
13.828 0.133298
13.832 1.542695
13.836 1.374830
13.840 0.069615
13.844 0.245674
13.848 1.686234
13.852 1.700950
13.856 0.273735
13.860 -0.048933
13.864 1.176815
13.868 1.545630
13.872 0.142999
13.876 -0.481821
13.880 0.621724
13.884 1.292053
13.888 0.192816
13.892 -0.645355
13.896 0.385687
13.900 1.397760
13.904 0.504355
13.908 -0.545331
13.912 0.146203
13.916 1.363782
13.920 0.766291
13.924 -0.524084
13.928 -0.134644
13.932 1.197567
13.936 0.938109
13.940 -0.354237
13.944 -0.271792
13.948 1.099761
13.952 1.174987
13.956 -0.173192
13.960 -0.442202
13.964 0.834770
13.968 1.244085
13.972 -0.028311
13.976 -0.598265
13.980 0.631803
13.984 1.391050
13.988 0.288528
13.992 -0.619334
13.996 0.368590
14.000 1.398263
14.004 0.505226
14.008 -0.566837
14.012 0.137371
14.016 1.354694
14.020 0.759140
14.024 -0.473491
14.028 -0.053009
14.032 1.290052
14.036 1.056893
14.040 -0.276619
14.044 -0.206506
14.048 1.161157
14.052 1.211867
14.056 -0.106489
14.060 -0.356829
14.064 0.977035
14.068 1.405734
14.072 0.168461
14.076 -0.447105
14.080 0.754601
14.084 1.494102
14.088 0.354574
14.092 -0.516999
14.096 0.482030
14.100 1.436642
14.104 0.548911
14.108 -0.537255
14.112 0.214972
14.116 1.401230
14.120 0.821077
14.124 -0.416857
14.128 -0.029408
14.132 1.315571
14.136 1.001616
14.140 -0.327526
14.144 -0.268635
14.148 1.124772
14.152 1.222358
14.156 -0.119461
14.160 -0.389755
14.164 0.991335
14.168 1.389692
14.172 0.150018
14.176 -0.420941
14.180 0.740661
14.184 1.503044
14.188 0.410482
14.192 -0.517956
14.196 0.525260
14.200 1.518982
14.204 0.656443
14.208 -0.468415
14.212 0.315297
14.216 1.492968
14.220 0.926265
14.224 -0.374819
14.228 0.083009
14.232 1.421057
14.236 1.153973
14.240 -0.212333
14.244 -0.150739
14.248 1.189514
14.252 1.254156
14.256 -0.063541
14.260 -0.309543
14.264 1.012011
14.268 1.442084
14.272 0.139855
14.276 -0.434106
14.280 0.804391
14.284 1.528984
14.288 0.428328
14.292 -0.474396
14.296 0.507121
14.300 1.522444
14.304 0.608782
14.308 -0.501296
14.312 0.245412
14.316 1.451915
14.320 0.891724
14.324 -0.357682
14.328 0.077095
14.332 1.409253
14.336 1.141238
14.340 -0.238986
14.344 -0.111712
14.348 1.264359
14.352 1.317802
14.356 -0.053137
14.360 -0.282998
14.364 1.005870
14.368 1.433778
14.372 0.129971
14.376 -0.445406
14.380 0.766983
14.384 1.451587
14.388 0.369559
14.392 -0.474734
14.396 0.506371
14.400 1.504505
14.404 0.645471
14.408 -0.476444
14.412 0.254356
14.416 1.470037
14.420 0.860108
14.424 -0.430113
14.428 0.014276
14.432 1.385875
14.436 1.140695
14.440 -0.205828
14.444 -0.120802
14.448 1.218413
14.452 1.341827
14.456 -0.022524
14.460 -0.286002
14.464 1.023843
14.468 1.408249
14.472 0.141719
14.476 -0.397130
14.480 0.811842
14.484 1.557796
14.488 0.447389
14.492 -0.427684
14.496 0.551917
14.500 1.564434
14.504 0.689184
14.508 -0.450340
14.512 0.332427
14.516 1.511424
14.520 0.929595
14.524 -0.302881
14.528 0.082377
14.532 1.424543
14.536 1.170305
14.540 -0.138594
14.544 -0.043992
14.548 1.345347
14.552 1.451388
14.556 0.078925
14.560 -0.179745
14.564 1.124537
14.568 1.518210
14.572 0.226489
14.576 -0.294839
14.580 0.855430
14.584 1.586025
14.588 0.467527
14.592 -0.432745
14.596 0.617552
14.600 1.602163
14.604 0.693776
14.608 -0.374037
14.612 0.320433
14.616 1.555816
14.620 0.942348
14.624 -0.336951
14.628 0.137668
14.632 1.425404
14.636 1.218161
14.640 -0.164870
14.644 -0.068748
14.648 1.283491
14.652 1.351653
14.656 -0.030741
14.660 -0.263658
14.664 1.059287
14.668 1.471703
14.672 0.201520
14.676 -0.393591
14.680 0.818746
14.684 1.563719
14.688 0.448636
14.692 -0.391115
14.696 0.582315
14.700 1.562866
14.704 0.738921
14.708 -0.396081
14.712 0.358834
14.716 1.496253
14.720 0.936568
14.724 -0.329047
14.728 0.132383
14.732 1.515194
14.736 1.251905
14.740 -0.062023
14.744 0.007261
14.748 1.348477
14.752 1.444303
14.756 0.082644
14.760 -0.187247
14.764 1.104293
14.768 1.541270
14.772 0.279228
14.776 -0.375890
14.780 0.811050
14.784 1.564858
14.788 0.470905
14.792 -0.434084
14.796 0.582735
14.800 1.576790
14.804 0.695966
14.808 -0.384301
14.812 0.347729
14.816 1.573442
14.820 0.990977
14.824 -0.309971
14.828 0.145310
14.832 1.481024
14.836 1.215219
14.840 -0.147271
14.844 -0.068824
14.848 1.318039
14.852 1.378704
14.856 0.007752
14.860 -0.247647
14.864 1.096687
14.868 1.622763
14.872 0.384234
14.876 -0.132491
14.880 1.186875
14.884 1.980787
14.888 0.959480
14.892 0.172760
14.896 1.082871
14.900 2.029116
14.904 1.099970
14.908 -0.097005
14.912 0.560637
14.916 1.673979
14.920 1.014195
14.924 -0.299253
14.928 0.029928
14.932 1.364529
14.936 1.169413
14.940 -0.151361
14.944 -0.030798
14.948 1.333956
14.952 1.426148
14.956 0.067373
14.960 -0.136595
14.964 1.160626
14.968 1.580403
14.972 0.279252
14.976 -0.295333
14.980 0.909376
14.984 1.633558
14.988 0.547211
14.992 -0.303979
14.996 0.642926
15.000 1.639883
15.004 0.769318
15.008 -0.331906
15.012 0.403487
15.016 1.601637
15.020 1.053564
15.024 -0.204511
15.028 0.213334
15.032 1.523091
15.036 1.293132
15.040 -0.045011
15.044 0.056166
15.048 1.411814
15.052 1.476633
15.056 0.095154
15.060 -0.120986
15.064 1.173684
15.068 1.552631
15.072 0.301077
15.076 -0.262385
15.080 0.956628
15.084 1.718427
15.088 0.546539
15.092 -0.296835
15.096 0.700584
15.100 1.732131
15.104 0.877497
15.108 -0.263034
15.112 0.530263
15.116 1.696180
15.120 1.081546
15.124 -0.195111
15.128 0.180843
15.132 1.507311
15.136 1.268573
15.140 -0.081321
15.144 0.037122
15.148 1.377895
15.152 1.402456
15.156 0.039202
15.160 -0.174372
15.164 1.131562
15.168 1.558598
15.172 0.286587
15.176 -0.296539
15.180 0.903956
15.184 1.642483
15.188 0.549031
15.192 -0.347868
15.196 0.673984
15.200 1.655269
15.204 0.856147
15.208 -0.276312
15.212 0.450615
15.216 1.662966
15.220 1.070934
15.224 -0.192086
15.228 0.221319
15.232 1.550451
15.236 1.268816
15.240 -0.102487
15.244 0.032723
15.248 1.372842
15.252 1.431787
15.256 0.040761
15.260 -0.226216
15.264 1.103444
15.268 1.482311
15.272 0.200498
15.276 -0.384729
15.280 0.812580
15.284 1.584654
15.288 0.433039
15.292 -0.445730
15.296 0.543270
15.300 1.612582
15.304 0.691298
15.308 -0.439530
15.312 0.315840
15.316 1.473418
15.320 0.892065
15.324 -0.345746
15.328 0.061547
15.332 1.338412
15.336 1.147381
15.340 -0.223409
15.344 -0.114739
15.348 1.249412
15.352 1.339929
15.356 0.020749
15.360 -0.212740
15.364 1.101861
15.368 1.522423
15.372 0.235765
15.376 -0.345773
15.380 0.894183
15.384 1.630885
15.388 0.511713
15.392 -0.330533
15.396 0.653508
15.400 1.601805
15.404 0.726623
15.408 -0.397619
15.412 0.277878
15.416 1.523156
15.420 0.975125
15.424 -0.342710
15.428 0.074960
15.432 1.369197
15.436 1.078610
15.440 -0.298503
15.444 -0.212732
15.448 1.129108
15.452 1.206994
15.456 -0.177280
15.460 -0.405923
15.464 0.909457
15.468 1.331888
15.472 0.065762
15.476 -0.530032
15.480 0.690499
15.484 1.461233
15.488 0.348479
15.492 -0.539855
15.496 0.446398
15.500 1.425290
15.504 0.576914
15.508 -0.587525
15.512 0.179362
15.516 1.383963
15.520 0.809618
15.524 -0.483613
15.528 -0.062204
15.532 1.275445
15.536 1.021054
15.540 -0.341473
15.544 -0.261479
15.548 1.096179
15.552 1.204018
15.556 -0.164750
15.560 -0.376905
15.564 0.922151
15.568 1.351055
15.572 0.071893
15.576 -0.501657
15.580 0.691521
15.584 1.444768
15.588 0.368791
15.592 -0.488896
15.596 0.478663
15.600 1.477025
15.604 0.614013
15.608 -0.512757
15.612 0.269643
15.616 1.456978
15.620 0.862756
15.624 -0.375003
15.628 0.039190
15.632 1.367918
15.636 1.073316
15.640 -0.257427
15.644 -0.170761
15.648 1.212935
15.652 1.309598
15.656 -0.049894
15.660 -0.300903
15.664 1.009412
15.668 1.430107
15.672 0.165879
15.676 -0.372716
15.680 0.822368
15.684 1.523336
15.688 0.436796
15.692 -0.414889
15.696 0.546696
15.700 1.539551
15.704 0.703069
15.708 -0.417962
15.712 0.318335
15.716 1.558885
15.720 0.957062
15.724 -0.367186
15.728 0.054464
15.732 1.405770
15.736 1.146213
15.740 -0.243557
15.744 -0.147268
15.748 1.229689
15.752 1.350014
15.756 -0.013062
15.760 -0.290371
15.764 1.088607
15.768 1.483518
15.772 0.204356
15.776 -0.368073
15.780 0.839217
15.784 1.582047
15.788 0.492742
15.792 -0.377663
15.796 0.636695
15.800 1.631894
15.804 0.760129
15.808 -0.339576
15.812 0.350771
15.816 1.536177
15.820 0.942113
15.824 -0.373664
15.828 0.061767
15.832 1.379787
15.836 1.075263
15.840 -0.282316
15.844 -0.152179
15.848 1.232999
15.852 1.336504
15.856 -0.074895
15.860 -0.315128
15.864 1.002360
15.868 1.396166
15.872 0.145385
15.876 -0.429435
15.880 0.812015
15.884 1.556950
15.888 0.416259
15.892 -0.477467
15.896 0.539799
15.900 1.558192
15.904 0.644147
15.908 -0.411840
15.912 0.340631
15.916 1.498236
15.920 0.935025
15.924 -0.342502
15.928 0.116197
15.932 1.572126
15.936 1.384391
15.940 0.153031
15.944 0.328759
15.948 1.760632
15.952 1.906264
15.956 0.466193
15.960 0.159011
15.964 1.440594
15.968 1.791144
15.972 0.458727
15.976 -0.215802
15.980 0.920637
15.984 1.584898
15.988 0.382748
15.992 -0.413597
15.996 0.624257
16.000 1.654516
16.004 0.817558
16.008 -0.276862
16.012 0.464363
16.016 1.622701
16.020 1.093081
16.024 -0.207763
16.028 0.199324
16.032 1.531295
16.036 1.339918
16.040 -0.038959
16.044 0.010557
16.048 1.353484
16.052 1.495905
16.056 0.089888
16.060 -0.188239
16.064 1.144859
16.068 1.559167
16.072 0.349921
16.076 -0.210165
16.080 0.968233
16.084 1.734181
16.088 0.643824
16.092 -0.241157
16.096 0.792472
16.100 1.802981
16.104 0.901260
16.108 -0.174487
16.112 0.519938
16.116 1.701052
16.120 1.168641
16.124 -0.077378
16.128 0.382031
16.132 1.701662
16.136 1.416018
16.140 0.055357
16.144 0.122849
16.148 1.480880
16.152 1.598882
16.156 0.258039
16.160 0.000207
16.164 1.297343
16.168 1.741360
16.172 0.437757
16.176 -0.097895
16.180 1.041403
16.184 1.802533
16.188 0.674936
16.192 -0.226126
16.196 0.749011
16.200 1.742937
16.204 0.891210
16.208 -0.209124
16.212 0.520357
16.216 1.756313
16.220 1.144147
16.224 -0.110271
16.228 0.288078
16.232 1.621468
16.236 1.422236
16.240 0.018833
16.244 0.100406
16.248 1.486184
16.252 1.588494
16.256 0.223600
16.260 -0.084656
16.264 1.247790
16.268 1.638383
16.272 0.362917
16.276 -0.185102
16.280 0.992053
16.284 1.740048
16.288 0.637975
16.292 -0.222077
16.296 0.791035
16.300 1.795430
16.304 0.951602
16.308 -0.141574
16.312 0.558705
16.316 1.742105
16.320 1.155781
16.324 -0.130818
16.328 0.285709
16.332 1.629836
16.336 1.350808
16.340 -0.014433
16.344 0.078253
16.348 1.433783
16.352 1.545031
16.356 0.206890
16.360 -0.087633
16.364 1.280276
16.368 1.724797
16.372 0.435779
16.376 -0.186404
16.380 1.025192
16.384 1.774588
16.388 0.595584
16.392 -0.287805
16.396 0.754992
16.400 1.737269
16.404 0.885727
16.408 -0.226176
16.412 0.510439
16.416 1.714423
16.420 1.124938
16.424 -0.184220
16.428 0.243049
16.432 1.536735
16.436 1.272366
16.440 -0.081160
16.444 0.024404
16.448 1.364499
16.452 1.476471
16.456 0.064606
16.460 -0.141723
16.464 1.178128
16.468 1.631586
16.472 0.358411
16.476 -0.254259
16.480 0.938825
16.484 1.682219
16.488 0.517728
16.492 -0.316773
16.496 0.679355
16.500 1.654925
16.504 0.786040
16.508 -0.336372
16.512 0.375049
16.516 1.607783
16.520 1.072102
16.524 -0.189571
16.528 0.175031
16.532 1.547442
16.536 1.264550
16.540 -0.085089
16.544 0.013758
16.548 1.353726
16.552 1.421813
16.556 0.056413
16.560 -0.177053
16.564 1.141833
16.568 1.567209
16.572 0.285618
16.576 -0.286059
16.580 0.922107
16.584 1.639235
16.588 0.500855
16.592 -0.359482
16.596 0.617477
16.600 1.606970
16.604 0.727357
16.608 -0.387726
16.612 0.398593
16.616 1.570572
16.620 1.009419
16.624 -0.271480
16.628 0.126678
16.632 1.496823
16.636 1.255393
16.640 -0.097255
16.644 -0.035759
16.648 1.359773
16.652 1.415488
16.656 0.067643
16.660 -0.166378
16.664 1.176425
16.668 1.612267
16.672 0.320670
16.676 -0.256511
16.680 0.957548
16.684 1.663814
16.688 0.570114
16.692 -0.316681
16.696 0.673629
16.700 1.689547
16.704 0.781603
16.708 -0.324096
16.712 0.416001
16.716 1.628573
16.720 1.075045
16.724 -0.222124
16.728 0.243246
16.732 1.520666
16.736 1.301888
16.740 -0.101663
16.744 -0.017112
16.748 1.349764
16.752 1.442672
16.756 0.045501
16.760 -0.241520
16.764 1.080065
16.768 1.464800
16.772 0.251420
16.776 -0.317884
16.780 0.894734
16.784 1.590487
16.788 0.464662
16.792 -0.417595
16.796 0.547219
16.800 1.584799
16.804 0.690991
16.808 -0.421992
16.812 0.335310
16.816 1.593820
16.820 0.981921
16.824 -0.306939
16.828 0.150475
16.832 1.461318
16.836 1.215023
16.840 -0.131369
16.844 -0.052671
16.848 1.310707
16.852 1.416992
16.856 0.052800
16.860 -0.201935
16.864 1.087349
16.868 1.500419
16.872 0.186252
16.876 -0.368835
16.880 0.832952
16.884 1.561755
16.888 0.406719
16.892 -0.471672
16.896 0.518308
16.900 1.490706
16.904 0.613585
16.908 -0.470690
16.912 0.250680
16.916 1.456651
16.920 0.894020
16.924 -0.376764
16.928 0.023658
16.932 1.370845
16.936 1.131653
16.940 -0.230448
16.944 -0.128247
16.948 1.208626
16.952 1.338217
16.956 -0.047055
16.960 -0.310595
16.964 1.002954
16.968 1.405115
16.972 0.174606
16.976 -0.402907
16.980 0.779499
16.984 1.526497
16.988 0.498833
16.992 -0.298035
16.996 0.819390
17.000 1.887485
17.004 1.062612
17.008 0.049040
17.012 0.889650
17.016 2.017476
17.020 1.338076
17.024 -0.027105
17.028 0.301391
17.032 1.606514
17.036 1.253829
17.040 -0.206036
17.044 -0.232192
17.048 1.098728
17.052 1.245041
17.056 -0.088629
17.060 -0.281940
17.064 1.050844
17.068 1.504266
17.072 0.176289
17.076 -0.380939
17.080 0.815808
17.084 1.574930
17.088 0.425835
17.092 -0.424709
17.096 0.611539
17.100 1.567429
17.104 0.757391
17.108 -0.393406
17.112 0.354887
17.116 1.547840
17.120 0.973337
17.124 -0.305961
17.128 0.130830
17.132 1.429158
17.136 1.186149
17.140 -0.191261
17.144 -0.076408
17.148 1.243872
17.152 1.355107
17.156 0.033879
17.160 -0.238084
17.164 1.089532
17.168 1.532921
17.172 0.254412
17.176 -0.281892
17.180 0.907121
17.184 1.658700
17.188 0.553883
17.192 -0.265332
17.196 0.715113
17.200 1.762134
17.204 0.848273
17.208 -0.239147
17.212 0.497091
17.216 1.726362
17.220 1.145929
17.224 -0.176836
17.228 0.299521
17.232 1.626022
17.236 1.351672
17.240 0.014464
17.244 0.091588
17.248 1.470548
17.252 1.540108
17.256 0.176966
17.260 -0.135822
17.264 1.183124
17.268 1.612906
17.272 0.339080
17.276 -0.276797
17.280 0.934967
17.284 1.673034
17.288 0.560839
17.292 -0.337744
17.296 0.638394
17.300 1.646554
17.304 0.783155
17.308 -0.343570
17.312 0.407198
17.316 1.587421
17.320 0.976862
17.324 -0.239253
17.328 0.192086
17.332 1.520279
17.336 1.288034
17.340 -0.062990
17.344 0.053456
17.348 1.397122
17.352 1.490639
17.356 0.099345
17.360 -0.164192
17.364 1.215179
17.368 1.641578
17.372 0.325227
17.376 -0.275758
17.380 0.937185
17.384 1.649383
17.388 0.553144
17.392 -0.333896
17.396 0.695719
17.400 1.670777
17.404 0.816202
17.408 -0.325983
17.412 0.430794
17.416 1.653926
17.420 1.014860
17.424 -0.244325
17.428 0.161442
17.432 1.493028
17.436 1.218780
17.440 -0.169545
17.444 -0.028633
17.448 1.304224
17.452 1.387692
17.456 0.032852
17.460 -0.241287
17.464 1.092808
17.468 1.561235
17.472 0.272670
17.476 -0.319976
17.480 0.871807
17.484 1.597710
17.488 0.471988
17.492 -0.401576
17.496 0.591954
17.500 1.571725
17.504 0.688840
17.508 -0.443918
17.512 0.283104
17.516 1.460650
17.520 0.877529
17.524 -0.409022
17.528 0.027156
17.532 1.369914
17.536 1.105551
17.540 -0.212041
17.544 -0.147488
17.548 1.227095
17.552 1.307036
17.556 -0.065896
17.560 -0.329816
17.564 1.044854
17.568 1.432667
17.572 0.208418
17.576 -0.388408
17.580 0.832718
17.584 1.526033
17.588 0.425707
17.592 -0.451939
17.596 0.517750
17.600 1.526315
17.604 0.634735
17.608 -0.487888
17.612 0.274172
17.616 1.497350
17.620 0.900484
17.624 -0.359430
17.628 0.021977
17.632 1.342987
17.636 1.110519
17.640 -0.250575
17.644 -0.165385
17.648 1.158764
17.652 1.255407
17.656 -0.099441
17.660 -0.334215
17.664 0.979929
17.668 1.413080
17.672 0.190230
17.676 -0.424560
17.680 0.825779
17.684 1.527122
17.688 0.419306
17.692 -0.475011
17.696 0.520421
17.700 1.488932
17.704 0.655228
17.708 -0.448204
17.712 0.259977
17.716 1.473735
17.720 0.915611
17.724 -0.347027
17.728 0.016269
17.732 1.350380
17.736 1.093438
17.740 -0.221533
17.744 -0.142924
17.748 1.214990
17.752 1.313801
17.756 -0.076525
17.760 -0.366982
17.764 0.938405
17.768 1.352080
17.772 0.120137
17.776 -0.498866
17.780 0.707520
17.784 1.483601
17.788 0.388479
17.792 -0.474841
17.796 0.490462
17.800 1.474573
17.804 0.626561
17.808 -0.457402
17.812 0.305755
17.816 1.494464
17.820 0.909797
17.824 -0.411398
17.828 0.045457
17.832 1.399608
17.836 1.129348
17.840 -0.273356
17.844 -0.157609
17.848 1.248199
17.852 1.329564
17.856 -0.034003
17.860 -0.238535
17.864 1.082928
17.868 1.506961
17.872 0.234469
17.876 -0.340926
17.880 0.895463
17.884 1.625398
17.888 0.523094
17.892 -0.318249
17.896 0.635399
17.900 1.652251
17.904 0.787825
17.908 -0.364978
17.912 0.410576
17.916 1.594736
17.920 1.029848
17.924 -0.299866
17.928 0.142310
17.932 1.460320
17.936 1.220698
17.940 -0.121126
17.944 -0.023145
17.948 1.390806
17.952 1.468359
17.956 0.112121
17.960 -0.155405
17.964 1.168690
17.968 1.562052
17.972 0.320928
17.976 -0.291827
17.980 0.888942
17.984 1.617888
17.988 0.524300
17.992 -0.290004
17.996 0.670604
18.000 1.724890
18.004 0.844891
18.008 -0.243804
18.012 0.480598
18.016 1.694036
18.020 1.102836
18.024 -0.161201
18.028 0.348927
18.032 1.747715
18.036 1.603714
18.040 0.329678
18.044 0.522920
18.048 1.955445
18.052 2.160477
18.056 0.706308
18.060 0.390576
18.064 1.635947
18.068 2.009410
18.072 0.637328
18.076 -0.020856
18.080 1.139574
18.084 1.771970
18.088 0.591847
18.092 -0.271120
18.096 0.793120
18.100 1.828525
18.104 0.980445
18.108 -0.115887
18.112 0.591077
18.116 1.765892
18.120 1.207858
18.124 -0.106415
18.128 0.303398
18.132 1.668748
18.136 1.397235
18.140 0.070136
18.144 0.149820
18.148 1.494796
18.152 1.615919
18.156 0.239642
18.160 -0.059214
18.164 1.303800
18.168 1.662713
18.172 0.409285
18.176 -0.154890
18.180 1.065363
18.184 1.823168
18.188 0.673783
18.192 -0.234347
18.196 0.785735
18.200 1.755008
18.204 0.901283
18.208 -0.198465
18.212 0.538227
18.216 1.753255
18.220 1.168599
18.224 -0.116753
18.228 0.376707
18.232 1.718740
18.236 1.468563
18.240 0.065719
18.244 0.112247
18.248 1.482387
18.252 1.567314
18.256 0.226773
18.260 -0.047904
18.264 1.299166
18.268 1.767949
18.272 0.457475
18.276 -0.080877
18.280 1.086471
18.284 1.822305
18.288 0.674413
18.292 -0.163071
18.296 0.822225
18.300 1.757949
18.304 0.904306
18.308 -0.254478
18.312 0.502735
18.316 1.655376
18.320 1.080428
18.324 -0.219489
18.328 0.235117
18.332 1.550356
18.336 1.254324
18.340 -0.103409
18.344 -0.010329
18.348 1.353295
18.352 1.441139
18.356 0.130743
18.360 -0.141740
18.364 1.183051
18.368 1.588168
18.372 0.344527
18.376 -0.223067
18.380 0.988265
18.384 1.678822
18.388 0.566992
18.392 -0.289401
18.396 0.664418
18.400 1.700237
18.404 0.840728
18.408 -0.237267
18.412 0.504704
18.416 1.697454
18.420 1.162094
18.424 -0.160731
18.428 0.241139
18.432 1.586234
18.436 1.369726
18.440 0.004696
18.444 0.073326
18.448 1.457374
18.452 1.516632
18.456 0.196997
18.460 -0.082446
18.464 1.238562
18.468 1.647481
18.472 0.385625
18.476 -0.203669
18.480 1.023863
18.484 1.741071
18.488 0.572498
18.492 -0.251577
18.496 0.740836
18.500 1.737929
18.504 0.865940
18.508 -0.240620
18.512 0.505346
18.516 1.652980
18.520 1.107515
18.524 -0.207353
18.528 0.224125
18.532 1.563308
18.536 1.291737
18.540 -0.038783
18.544 0.065160
18.548 1.390955
18.552 1.518534
18.556 0.149823
18.560 -0.134081
18.564 1.220816
18.568 1.658434
18.572 0.347705
18.576 -0.270448
18.580 0.933628
18.584 1.680434
18.588 0.601857
18.592 -0.290947
18.596 0.704121
18.600 1.722489
18.604 0.820723
18.608 -0.260555
18.612 0.474319
18.616 1.624562
18.620 1.088329
18.624 -0.162000
18.628 0.252134
18.632 1.614278
18.636 1.388726
18.640 0.042556
18.644 0.135267
18.648 1.495112
18.652 1.590723
18.656 0.227853
18.660 -0.089557
18.664 1.277192
18.668 1.682873
18.672 0.389928
18.676 -0.181851
18.680 0.990655
18.684 1.708560
18.688 0.598502
18.692 -0.287226
18.696 0.751703
18.700 1.711285
18.704 0.847335
18.708 -0.251656
18.712 0.501287
18.716 1.709976
18.720 1.132470
18.724 -0.130252
18.728 0.256602
18.732 1.534390
18.736 1.328339
18.740 -0.020443
18.744 0.085360
18.748 1.430604
18.752 1.501636
18.756 0.160394
18.760 -0.117056
18.764 1.216535
18.768 1.622920
18.772 0.352832
18.776 -0.187497
18.780 0.987607
18.784 1.705882
18.788 0.618807
18.792 -0.261986
18.796 0.702536
18.800 1.664229
18.804 0.790468
18.808 -0.289624
18.812 0.429307
18.816 1.676165
18.820 1.094476
18.824 -0.243442
18.828 0.201428
18.832 1.536424
18.836 1.251575
18.840 -0.108204
18.844 -0.035552
18.848 1.285891
18.852 1.381529
18.856 0.014840
18.860 -0.187088
18.864 1.078794
18.868 1.503206
18.872 0.196264
18.876 -0.352315
18.880 0.847475
18.884 1.589878
18.888 0.509763
18.892 -0.346184
18.896 0.624830
18.900 1.619612
18.904 0.726381
18.908 -0.384763
18.912 0.337023
18.916 1.579243
18.920 1.005601
18.924 -0.259468
18.928 0.201208
18.932 1.528574
18.936 1.274198
18.940 -0.057705
18.944 0.043183
18.948 1.419985
18.952 1.523895
18.956 0.187007
18.960 -0.075725
18.964 1.235040
18.968 1.645245
18.972 0.398846
18.976 -0.188628
18.980 1.054458
18.984 1.788022
18.988 0.718680
18.992 -0.120162
18.996 0.897617
19.000 1.873609
19.004 1.019603
19.008 -0.072145
19.012 0.639520
19.016 1.818252
19.020 1.210158
19.024 -0.044562
19.028 0.367436
19.032 1.671295
19.036 1.425520
19.040 0.082371
19.044 0.156850
19.048 1.549725
19.052 1.653672
19.056 0.317527
19.060 0.049495
19.064 1.339250
19.068 1.748176
19.072 0.598571
19.076 0.120847
19.080 1.408018
19.084 2.221128
19.088 1.199672
19.092 0.403144
19.096 1.472930
19.100 2.386191
19.104 1.407140
19.108 0.223866
19.112 0.898685
19.116 2.029762
19.120 1.369028
19.124 -0.026163
19.128 0.331563
19.132 1.584184
19.136 1.318513
19.140 0.006815
19.144 0.124015
19.148 1.541027
19.152 1.643099
19.156 0.314684
19.160 0.032133
19.164 1.364445
19.168 1.781527
19.172 0.558170
19.176 -0.053952
19.180 1.144637
19.184 1.878355
19.188 0.813058
19.192 -0.056685
19.196 0.941449
19.200 1.926154
19.204 1.051870
19.208 -0.064684
19.212 0.708174
19.216 1.865300
19.220 1.290952
19.224 0.021618
19.228 0.442185
19.232 1.780051
19.236 1.554241
19.240 0.162525
19.244 0.264698
19.248 1.622640
19.252 1.722026
19.256 0.374350
19.260 0.139215
19.264 1.445153
19.268 1.881096
19.272 0.626812
19.276 0.042514
19.280 1.232014
19.284 1.971126
19.288 0.852517
19.292 -0.019456
19.296 0.921017
19.300 1.924824
19.304 1.047595
19.308 -0.036800
19.312 0.679451
19.316 1.878233
19.320 1.301543
19.324 0.012726
19.328 0.427194
19.332 1.761324
19.336 1.451341
19.340 0.110993
19.344 0.173932
19.348 1.539210
19.352 1.594626
19.356 0.235652
19.360 0.015651
19.364 1.343668
19.368 1.774838
19.372 0.539901
19.376 -0.074626
19.380 1.148417
19.384 1.898989
19.388 0.761112
19.392 -0.129910
19.396 0.866630
19.400 1.853468
19.404 1.014341
19.408 -0.113911
19.412 0.612566
19.416 1.831726
19.420 1.228892
19.424 -0.042121
19.428 0.403267
19.432 1.701085
19.436 1.469035
19.440 0.111664
19.444 0.186443
19.448 1.591650
19.452 1.679459
19.456 0.313586
19.460 0.042634
19.464 1.329236
19.468 1.780375
19.472 0.514514
19.476 -0.039486
19.480 1.169833
19.484 1.919356
19.488 0.837408
19.492 -0.027651
19.496 0.998680
19.500 1.994966
19.504 1.118854
19.508 -0.008773
19.512 0.708338
19.516 1.936755
19.520 1.344796
19.524 0.110077
19.528 0.545757
19.532 1.861575
19.536 1.590348
19.540 0.232504
19.544 0.368367
19.548 1.746173
19.552 1.823623
19.556 0.465436
19.560 0.209343
19.564 1.516152
19.568 1.953548
19.572 0.613536
19.576 0.062020
19.580 1.301262
19.584 2.021594
19.588 0.905401
19.592 0.013548
19.596 1.067083
19.600 2.057362
19.604 1.151425
19.608 0.067823
19.612 0.833173
19.616 1.978036
19.620 1.413369
19.624 0.117702
19.628 0.567684
19.632 1.861632
19.636 1.585481
19.640 0.236569
19.644 0.338575
19.648 1.734067
19.652 1.757168
19.656 0.429143
19.660 0.231419
19.664 1.560052
19.668 1.937136
19.672 0.641635
19.676 0.043906
19.680 1.267851
19.684 1.958939
19.688 0.831110
19.692 -0.042907
19.696 0.977924
19.700 2.007917
19.704 1.164103
19.708 0.053389
19.712 0.755503
19.716 1.939447
19.720 1.354333
19.724 0.101365
19.728 0.517181
19.732 1.848537
19.736 1.609577
19.740 0.247384
19.744 0.311570
19.748 1.670723
19.752 1.757515
19.756 0.424006
19.760 0.164066
19.764 1.494292
19.768 1.960586
19.772 0.655200
19.776 0.095803
19.780 1.293861
19.784 1.999731
19.788 0.908309
19.792 0.046847
19.796 1.025340
19.800 2.017046
19.804 1.142717
19.808 0.033654
19.812 0.762366
19.816 1.937230
19.820 1.375173
19.824 0.080821
19.828 0.504197
19.832 1.837881
19.836 1.521708
19.840 0.177163
19.844 0.305196
19.848 1.638594
19.852 1.736093
19.856 0.366087
19.860 0.125939
19.864 1.438895
19.868 1.854738
19.872 0.540240
19.876 -0.054013
19.880 1.155008
19.884 1.898044
19.888 0.790437
19.892 -0.081586
19.896 0.875551
19.900 1.928123
19.904 1.008791
19.908 -0.083915
19.912 0.606138
19.916 1.822809
19.920 1.185960
19.924 -0.070261
19.928 0.372995
19.932 1.676056
19.936 1.392550
19.940 0.027900
19.944 0.125645
19.948 1.484603
19.952 1.584505
19.956 0.258570
19.960 -0.021281
19.964 1.307352
19.968 1.735052
19.972 0.441183
19.976 -0.143181
19.980 1.051564
19.984 1.777864
19.988 0.665509
19.992 -0.226377
19.996 0.758522
20.000 1.736174
20.004 0.922576
20.008 -0.183761
20.012 0.525576
20.016 1.747102
20.020 1.109190
20.024 -0.127634
20.028 0.288089
20.032 1.595001
20.036 1.292281
20.040 -0.059397
20.044 0.072603
20.048 1.443528
20.052 1.539214
20.056 0.179479
20.060 -0.077220
20.064 1.244976
20.068 1.611803
20.072 0.343975
20.076 -0.220773
20.080 0.960010
20.084 1.696175
20.088 0.583797
20.092 -0.286278
20.096 0.722234
20.100 1.678009
20.104 0.814525
20.108 -0.285088
20.112 0.449981
20.116 1.615825
20.120 1.031928
20.124 -0.182830
20.128 0.304475
20.132 1.659613
20.136 1.485376
20.140 0.266291
20.144 0.412034
20.148 1.880806
20.152 2.060266
20.156 0.651958
20.160 0.310407
20.164 1.543555
20.168 1.919415
20.172 0.615024
20.176 -0.094704
20.180 1.031389
20.184 1.685406
20.188 0.503527
20.192 -0.352897
20.196 0.721228
20.200 1.739763
20.204 0.945438
20.208 -0.190049
20.212 0.518870
20.216 1.750980
20.220 1.118023
20.224 -0.154996
20.228 0.245973
20.232 1.581383
20.236 1.303850
20.240 -0.071894
20.244 0.048585
20.248 1.422787
20.252 1.493282
20.256 0.131708
20.260 -0.152692
20.264 1.170980
20.268 1.583463
20.272 0.321090
20.276 -0.230848
20.280 0.953981
20.284 1.720310
20.288 0.603566
20.292 -0.267550
20.296 0.734304
20.300 1.735676
20.304 0.862335
20.308 -0.226719
20.312 0.479853
20.316 1.699178
20.320 1.124710
20.324 -0.130196
20.328 0.312885
20.332 1.648445
20.336 1.427424
20.340 0.039551
20.344 0.177130
20.348 1.480106
20.352 1.586884
20.356 0.277085
20.360 -0.017797
20.364 1.295456
20.368 1.740792
20.372 0.418562
20.376 -0.196437
20.380 1.035576
20.384 1.732913
20.388 0.593278
20.392 -0.256929
20.396 0.731141
20.400 1.708017
20.404 0.812436
20.408 -0.304884
20.412 0.436988
20.416 1.642035
20.420 1.054817
20.424 -0.208698
20.428 0.236281
20.432 1.572406
20.436 1.292717
20.440 -0.045604
20.444 -0.000425
20.448 1.350372
20.452 1.436487
20.456 0.046984
20.460 -0.205058
20.464 1.137102
20.468 1.523544
20.472 0.267661
20.476 -0.322775
20.480 0.866131
20.484 1.622709
20.488 0.457690
20.492 -0.406909
20.496 0.626637
20.500 1.586429
20.504 0.711473
20.508 -0.394156
20.512 0.328236
20.516 1.549688
20.520 1.020457
20.524 -0.277265
20.528 0.175410
20.532 1.529954
20.536 1.259915
20.540 -0.117526
20.544 -0.046465
20.548 1.340037
20.552 1.390876
20.556 0.061271
20.560 -0.209622
20.564 1.143592
20.568 1.582272
20.572 0.356921
20.576 -0.237043
20.580 0.993168
20.584 1.693242
20.588 0.600869
20.592 -0.260083
20.596 0.720919
20.600 1.725571
20.604 0.828253
20.608 -0.290589
20.612 0.412026
20.616 1.636220
20.620 1.015851
20.624 -0.247441
20.628 0.200849
20.632 1.539909
20.636 1.257859
20.640 -0.147581
20.644 -0.050120
20.648 1.291774
20.652 1.379455
20.656 0.008556
20.660 -0.198391
20.664 1.090105
20.668 1.488086
20.672 0.177126
20.676 -0.366718
20.680 0.799175
20.684 1.582435
20.688 0.446483
20.692 -0.445325
20.696 0.542228
20.700 1.548975
20.704 0.678215
20.708 -0.461144
20.712 0.284637
20.716 1.506153
20.720 0.933611
20.724 -0.333965
20.728 0.087345
20.732 1.426107
20.736 1.185459
20.740 -0.189576
20.744 -0.069422
20.748 1.283972
20.752 1.355122
20.756 0.020207
20.760 -0.202032
20.764 1.144740
20.768 1.594857
20.772 0.280507
20.776 -0.278904
20.780 0.897756
20.784 1.615252
20.788 0.529377
20.792 -0.395498
20.796 0.598825
20.800 1.617865
20.804 0.766746
20.808 -0.348739
20.812 0.350034
20.816 1.542859
20.820 1.016256
20.824 -0.260970
20.828 0.117296
20.832 1.451777
20.836 1.169963
20.840 -0.143261
20.844 -0.084254
20.848 1.265331
20.852 1.345807
20.856 -0.008209
20.860 -0.267020
20.864 1.086319
20.868 1.477806
20.872 0.227809
20.876 -0.349756
20.880 0.877596
20.884 1.598903
20.888 0.452876
20.892 -0.408416
20.896 0.615213
20.900 1.606468
20.904 0.788266
20.908 -0.308948
20.912 0.436756
20.916 1.630358
20.920 1.017529
20.924 -0.272083
20.928 0.134900
20.932 1.463541
20.936 1.165967
20.940 -0.150018
20.944 -0.053665
20.948 1.275330
20.952 1.330379
20.956 -0.035076
20.960 -0.253998
20.964 1.067144
20.968 1.478998
20.972 0.189687
20.976 -0.393192
20.980 0.770885
20.984 1.521628
20.988 0.397857
20.992 -0.455206
20.996 0.539980
21.000 1.549894
21.004 0.665038
21.008 -0.440158
21.012 0.273085
21.016 1.497569
21.020 0.892080
21.024 -0.371699
21.028 0.063147
21.032 1.429459
21.036 1.190087
21.040 -0.168377
21.044 -0.103466
21.048 1.315509
21.052 1.368154
21.056 0.033641
21.060 -0.212836
21.064 1.115332
21.068 1.524844
21.072 0.253329
21.076 -0.345098
21.080 0.824777
21.084 1.600821
21.088 0.446449
21.092 -0.457823
21.096 0.530854
21.100 1.512955
21.104 0.647349
21.108 -0.481491
21.112 0.271315
21.116 1.425416
21.120 0.862255
21.124 -0.378494
21.128 0.046695
21.132 1.346558
21.136 1.045169
21.140 -0.332497
21.144 -0.222916
21.148 1.105820
21.152 1.176678
21.156 -0.203820
21.160 -0.436652
21.164 0.911962
21.168 1.332708
21.172 0.071495
21.176 -0.524612
21.180 0.672816
21.184 1.414795
21.188 0.407989
21.192 -0.404997
21.196 0.702749
21.200 1.775499
21.204 1.050046
21.208 0.029232
21.212 0.807777
21.216 1.948892
21.220 1.324047
21.224 -0.055730
21.228 0.328432
21.232 1.604112
21.236 1.249373
21.240 -0.136069
21.244 -0.197536
21.248 1.115995
21.252 1.208192
21.256 -0.095338
21.260 -0.336609
21.264 1.000772
21.268 1.415964
21.272 0.121121
21.276 -0.432996
21.280 0.706882
21.284 1.434620
21.288 0.392228
21.292 -0.494159
21.296 0.510920
21.300 1.468347
21.304 0.617687
21.308 -0.458316
21.312 0.268749
21.316 1.461970
21.320 0.854913
21.324 -0.393905
21.328 0.041936
21.332 1.371909
21.336 1.136307
21.340 -0.226051
21.344 -0.113987
21.348 1.288410
21.352 1.338137
21.356 0.010113
21.360 -0.257039
21.364 1.070811
21.368 1.469393
21.372 0.203867
21.376 -0.372566
21.380 0.825617
21.384 1.576904
21.388 0.520385
21.392 -0.399423
21.396 0.640225
21.400 1.651729
21.404 0.759279
21.408 -0.306213
21.412 0.440231
21.416 1.624202
21.420 1.009222
21.424 -0.243635
21.428 0.136904
21.432 1.474175
21.436 1.196744
21.440 -0.188157
21.444 -0.133291
21.448 1.226501
21.452 1.334207
21.456 -0.001844
21.460 -0.250042
21.464 1.072184
21.468 1.511809
21.472 0.191671
21.476 -0.396156
21.480 0.784824
21.484 1.456461
21.488 0.369792
21.492 -0.475236
21.496 0.515906
21.500 1.528326
21.504 0.657423
21.508 -0.448157
21.512 0.327333
21.516 1.500244
21.520 0.923186
21.524 -0.368963
21.528 0.067979
21.532 1.366514
21.536 1.149093
21.540 -0.193421
21.544 -0.041154
21.548 1.316004
21.552 1.362813
21.556 0.044122
21.560 -0.194975
21.564 1.081317
21.568 1.568937
21.572 0.278071
21.576 -0.291543
21.580 0.909510
21.584 1.639881
21.588 0.550737
21.592 -0.307348
21.596 0.759840
21.600 1.737281
21.604 0.839366
21.608 -0.288370
21.612 0.449778
21.616 1.646167
21.620 1.102319
21.624 -0.204334
21.628 0.215060
21.632 1.560528
21.636 1.304359
21.640 -0.086159
21.644 -0.046254
21.648 1.350100
21.652 1.430942
21.656 0.093400
21.660 -0.155550
21.664 1.178572
21.668 1.631516
21.672 0.355903
21.676 -0.191284
21.680 1.003070
21.684 1.711704
21.688 0.590115
21.692 -0.322345
21.696 0.675079
21.700 1.684369
21.704 0.791617
21.708 -0.297159
21.712 0.462795
21.716 1.689536
21.720 1.099079
21.724 -0.208499
21.728 0.234971
21.732 1.553092
21.736 1.327087
21.740 -0.063975
21.744 0.036339
21.748 1.414351
21.752 1.525561
21.756 0.187776
21.760 -0.055354
21.764 1.282404
21.768 1.725594
21.772 0.445188
21.776 -0.160633
21.780 1.051332
21.784 1.781726
21.788 0.686116
21.792 -0.207830
21.796 0.794338
21.800 1.740598
21.804 0.874403
21.808 -0.250864
21.812 0.456783
21.816 1.645933
21.820 1.070594
21.824 -0.225219
21.828 0.208254
21.832 1.539832
21.836 1.286738
21.840 -0.072103
21.844 -0.016325
21.848 1.370405
21.852 1.435234
21.856 0.049180
21.860 -0.186455
21.864 1.185691
21.868 1.621629
21.872 0.350666
21.876 -0.226627
21.880 0.943983
21.884 1.691364
21.888 0.536903
21.892 -0.277680
21.896 0.730497
21.900 1.740356
21.904 0.847853
21.908 -0.188853
21.912 0.510516
21.916 1.759449
21.920 1.193425
21.924 -0.110582
21.928 0.269017
21.932 1.572653
21.936 1.299601
21.940 -0.097946
21.944 -0.033132
21.948 1.399233
21.952 1.436134
21.956 0.085182
21.960 -0.136343
21.964 1.179589
21.968 1.625657
21.972 0.331235
21.976 -0.232821
21.980 0.935021
21.984 1.694249
21.988 0.573362
21.992 -0.280325
21.996 0.721360
22.000 1.693366
22.004 0.859020
22.008 -0.259149
22.012 0.516557
22.016 1.733102
22.020 1.162701
22.024 -0.112331
22.028 0.312272
22.032 1.626766
22.036 1.407780
22.040 0.030956
22.044 0.109519
22.048 1.476794
22.052 1.527395
22.056 0.178849
22.060 -0.081553
22.064 1.281968
22.068 1.720659
22.072 0.459569
22.076 -0.139239
22.080 1.059876
22.084 1.808233
22.088 0.698234
22.092 -0.208450
22.096 0.835774
22.100 1.869888
22.104 0.972505
22.108 -0.154258
22.112 0.588851
22.116 1.790812
22.120 1.156227
22.124 -0.119237
22.128 0.283528
22.132 1.630149
22.136 1.394881
22.140 -0.018249
22.144 0.086147
22.148 1.473028
22.152 1.592462
22.156 0.185523
22.160 -0.037327
22.164 1.257505
22.168 1.718275
22.172 0.491044
22.176 -0.083651
22.180 1.087657
22.184 1.856707
22.188 0.768565
22.192 -0.130520
22.196 0.853133
22.200 1.854267
22.204 0.977042
22.208 -0.149225
22.212 0.562444
22.216 1.776310
22.220 1.212329
22.224 -0.051595
22.228 0.391551
22.232 1.772392
22.236 1.613560
22.240 0.314917
22.244 0.491560
22.248 1.937943
22.252 2.093553
22.256 0.803927
22.260 0.485520
22.264 1.792288
22.268 2.103179
22.272 0.778618
22.276 0.102415
22.280 1.248990
22.284 1.893647
22.288 0.703967
22.292 -0.237624
22.296 0.828622
22.300 1.838676
22.304 0.968717
22.308 -0.128828
22.312 0.575934
22.316 1.760481
22.320 1.228964
22.324 -0.015986
22.328 0.413588
22.332 1.729614
22.336 1.493373
22.340 0.138629
22.344 0.242377
22.348 1.638571
22.352 1.679890
22.356 0.317692
22.360 0.108132
22.364 1.459256
22.368 1.903957
22.372 0.590495
22.376 0.005274
22.380 1.184311
22.384 1.953013
22.388 0.890498
22.392 0.005840
22.396 1.043662
22.400 2.017556
22.404 1.160873
22.408 0.035720
22.412 0.754702
22.416 1.983142
22.420 1.407529
22.424 0.127906
22.428 0.552685
22.432 1.882833
22.436 1.633340
22.440 0.285541
22.444 0.406217
22.448 1.730041
22.452 1.815813
22.456 0.442709
22.460 0.155510
22.464 1.500852
22.468 1.882106
22.472 0.609376
22.476 0.009934
22.480 1.204076
22.484 1.946038
22.488 0.852342
22.492 -0.065051
22.496 0.934054
22.500 1.922266
22.504 1.049161
22.508 -0.031065
22.512 0.671230
22.516 1.867647
22.520 1.310170
22.524 0.049484
22.528 0.433420
22.532 1.764462
22.536 1.503386
22.540 0.152717
22.544 0.228684
22.548 1.630863
22.552 1.694164
22.556 0.313983
22.560 0.055160
22.564 1.424521
22.568 1.845282
22.572 0.545069
22.576 -0.020026
22.580 1.164385
22.584 1.903395
22.588 0.760297
22.592 -0.102073
22.596 0.931162
22.600 1.908539
22.604 1.028905
22.608 -0.039453
22.612 0.690045
22.616 1.867168
22.620 1.314974
22.624 0.046686
22.628 0.503961
22.632 1.849395
22.636 1.601783
22.640 0.272789
22.644 0.387692
22.648 1.747987
22.652 1.821095
22.656 0.457501
22.660 0.219148
22.664 1.584918
22.668 1.977626
22.672 0.699358
22.676 0.141116
22.680 1.345546
22.684 2.098719
22.688 0.977456
22.692 0.083460
22.696 1.100412
22.700 2.059110
22.704 1.205071
22.708 0.075857
22.712 0.854737
22.716 2.070805
22.720 1.466199
22.724 0.231079
22.728 0.645678
22.732 1.958005
22.736 1.684939
22.740 0.298824
22.744 0.377389
22.748 1.747113
22.752 1.797650
22.756 0.470137
22.760 0.203959
22.764 1.551817
22.768 1.927837
22.772 0.632324
22.776 0.060277
22.780 1.253242
22.784 1.993676
22.788 0.894393
22.792 -0.009109
22.796 0.995307
22.800 1.998214
22.804 1.122956
22.808 -0.003126
22.812 0.745224
22.816 1.952108
22.820 1.338530
22.824 0.040756
22.828 0.479260
22.832 1.798955
22.836 1.532178
22.840 0.209494
22.844 0.263824
22.848 1.653181
22.852 1.722436
22.856 0.405515
22.860 0.161919
22.864 1.480510
22.868 1.902452
22.872 0.605797
22.876 0.025018
22.880 1.221034
22.884 1.937309
22.888 0.818940
22.892 -0.049554
22.896 0.914929
22.900 1.931459
22.904 1.020206
22.908 -0.055745
22.912 0.690854
22.916 1.886240
22.920 1.334465
22.924 0.049676
22.928 0.467111
22.932 1.807470
22.936 1.546964
22.940 0.181096
22.944 0.275618
22.948 1.653100
22.952 1.701911
22.956 0.343632
22.960 0.088749
22.964 1.420960
22.968 1.818758
22.972 0.578220
22.976 -0.030888
22.980 1.206577
22.984 1.906145
22.988 0.812193
22.992 -0.057697
22.996 0.951164
23.000 1.973487
23.004 1.085348
23.008 -0.037313
23.012 0.669792
23.016 1.890129
23.020 1.341408
23.024 0.022229
23.028 0.489811
23.032 1.812082
23.036 1.594796
23.040 0.242383
23.044 0.289575
23.048 1.686318
23.052 1.722744
23.056 0.379022
23.060 0.127572
23.064 1.422646
23.068 1.882592
23.072 0.620451
23.076 0.051950
23.080 1.203191
23.084 1.974240
23.088 0.848355
23.092 -0.039466
23.096 0.999501
23.100 1.997753
23.104 1.071764
23.108 -0.008604
23.112 0.727373
23.116 1.926040
23.120 1.313907
23.124 0.063927
23.128 0.505788
23.132 1.775176
23.136 1.590350
23.140 0.224385
23.144 0.294102
23.148 1.647082
23.152 1.725129
23.156 0.386986
23.160 0.120230
23.164 1.449371
23.168 1.879937
23.172 0.591523
23.176 -0.033331
23.180 1.151656
23.184 1.867867
23.188 0.784971
23.192 -0.112102
23.196 0.912235
23.200 1.878066
23.204 0.997428
23.208 -0.119494
23.212 0.594835
23.216 1.797369
23.220 1.227823
23.224 -0.072553
23.228 0.364080
23.232 1.676768
23.236 1.448245
23.240 0.087620
23.244 0.132795
23.248 1.504836
23.252 1.610958
23.256 0.251132
23.260 0.015631
23.264 1.287783
23.268 1.749390
23.272 0.427328
23.276 -0.098581
23.280 1.128782
23.284 1.853256
23.288 0.777180
23.292 -0.006652
23.296 1.043981
23.300 2.133809
23.304 1.333613
23.308 0.284660
23.312 1.071240
23.316 2.359170
23.320 1.709801
23.324 0.339917
23.328 0.711594
23.332 1.949742
23.336 1.663230
23.340 0.197797
23.344 0.237528
23.348 1.565670
23.352 1.529589
23.356 0.185463
23.360 -0.039862
23.364 1.332378
23.368 1.784370
23.372 0.566465
23.376 -0.010776
23.380 1.156244
23.384 1.922132
23.388 0.814149
23.392 -0.013652
23.396 0.960361
23.400 1.963387
23.404 1.070529
23.408 -0.009061
23.412 0.680540
23.416 1.899076
23.420 1.290542
23.424 -0.000574
23.428 0.391547
23.432 1.732627
23.436 1.441674
23.440 0.087441
23.444 0.158531
23.448 1.576134
23.452 1.627568
23.456 0.256434
23.460 -0.005985
23.464 1.332949
23.468 1.717311
23.472 0.443003
23.476 -0.145072
23.480 0.996184
23.484 1.770094
23.488 0.627414
23.492 -0.200756
23.496 0.766977
23.500 1.798006
23.504 0.956168
23.508 -0.197788
23.512 0.584841
23.516 1.784805
23.520 1.166053
23.524 -0.098685
23.528 0.294149
23.532 1.647161
23.536 1.326191
23.540 -0.041877
23.544 0.091527
23.548 1.470203
23.552 1.528013
23.556 0.152123
23.560 -0.130601
23.564 1.174438
23.568 1.623556
23.572 0.341335
23.576 -0.244206
23.580 0.929147
23.584 1.621624
23.588 0.552702
23.592 -0.364779
23.596 0.657298
23.600 1.665269
23.604 0.782922
23.608 -0.394063
23.612 0.313797
23.616 1.518901
23.620 0.935043
23.624 -0.330352
23.628 0.060565
23.632 1.374132
23.636 1.185088
23.640 -0.165323
23.644 -0.108023
23.648 1.261860
23.652 1.345113
23.656 -0.006105
23.660 -0.318435
23.664 1.007328
23.668 1.412999
23.672 0.159509
23.676 -0.420963
23.680 0.802870
23.684 1.537267
23.688 0.460081
23.692 -0.448485
23.696 0.550706
23.700 1.600488
23.704 0.743914
23.708 -0.358273
23.712 0.334461
23.716 1.605221
23.720 1.013215
23.724 -0.272049
23.728 0.139642
23.732 1.456240
23.736 1.252325
23.740 -0.104203
23.744 -0.046801
23.748 1.329105
23.752 1.390009
23.756 0.091775
23.760 -0.217802
23.764 1.135017
23.768 1.555698
23.772 0.248663
23.776 -0.358303
23.780 0.892085
23.784 1.579657
23.788 0.492635
23.792 -0.368172
23.796 0.642926
23.800 1.637014
23.804 0.782064
23.808 -0.345845
23.812 0.398746
23.816 1.635644
23.820 1.058028
23.824 -0.182638
23.828 0.189915
23.832 1.537850
23.836 1.226360
23.840 -0.107802
23.844 -0.006912
23.848 1.355881
23.852 1.461275
23.856 0.075790
23.860 -0.165020
23.864 1.121268
23.868 1.520423
23.872 0.255180
23.876 -0.357215
23.880 0.848002
23.884 1.601413
23.888 0.500167
23.892 -0.388631
23.896 0.579620
23.900 1.599640
23.904 0.735324
23.908 -0.342802
23.912 0.400232
23.916 1.597518
23.920 1.011188
23.924 -0.220912
23.928 0.179528
23.932 1.534984
23.936 1.264534
23.940 -0.134254
23.944 -0.068111
23.948 1.331340
23.952 1.407684
23.956 0.060155
23.960 -0.210419
23.964 1.108415
23.968 1.556786
23.972 0.300689
23.976 -0.269843
23.980 0.935086
23.984 1.679008
23.988 0.559031
23.992 -0.251932
23.996 0.733171
24.000 1.718612
24.004 0.844773
24.008 -0.239424
24.012 0.494797
24.016 1.651850
24.020 1.106680
24.024 -0.162059
24.028 0.261243
24.032 1.620699
24.036 1.400545
24.040 0.017928
24.044 0.093358
24.048 1.435385
24.052 1.513567
24.056 0.214623
24.060 -0.056401
24.064 1.265767
24.068 1.675229
24.072 0.381514
24.076 -0.200253
24.080 1.001542
24.084 1.724548
24.088 0.588873
24.092 -0.309630
24.096 0.741365
24.100 1.723737
24.104 0.895298
24.108 -0.197950
24.112 0.520896
24.116 1.728183
24.120 1.143419
24.124 -0.081619
24.128 0.309861
24.132 1.662747
24.136 1.399727
24.140 0.010833
24.144 0.118167
24.148 1.544386
24.152 1.598398
24.156 0.241386
24.160 -0.008854
24.164 1.331091
24.168 1.739113
24.172 0.416933
24.176 -0.109649
24.180 1.129776
24.184 1.877250
24.188 0.749386
24.192 -0.115958
24.196 0.847812
24.200 1.823131
24.204 0.982408
24.208 -0.129978
24.212 0.613134
24.216 1.865446
24.220 1.245846
24.224 -0.002269
24.228 0.442191
24.232 1.770406
24.236 1.465226
24.240 0.103012
24.244 0.149669
24.248 1.532973
24.252 1.606641
24.256 0.216880
24.260 0.009766
24.264 1.306341
24.268 1.742495
24.272 0.459697
24.276 -0.152467
24.280 1.047487
24.284 1.796915
24.288 0.701819
24.292 -0.166422
24.296 0.781062
24.300 1.784976
24.304 0.931120
24.308 -0.213614
24.312 0.581243
24.316 1.786990
24.320 1.174367
24.324 -0.065194
24.328 0.324244
24.332 1.688062
24.336 1.424043
24.340 0.169645
24.344 0.368999
24.348 1.809039
24.352 1.984248
24.356 0.702114
24.360 0.511899
24.364 1.938686
24.368 2.255504
24.372 0.879003
24.376 0.235770
24.380 1.367292
24.384 2.036545
24.388 0.900682
24.392 -0.072941
24.396 0.893641
24.400 1.786938
24.404 0.921733
24.408 -0.136720
24.412 0.631404
24.416 1.888534
24.420 1.326303
24.424 0.044788
24.428 0.497083
24.432 1.805778
24.436 1.570002
24.440 0.170834
24.444 0.269466
24.448 1.644805
24.452 1.708362
24.456 0.399954
24.460 0.100740
24.464 1.451353
24.468 1.901755
24.472 0.654606
24.476 0.049263
24.480 1.257561
24.484 2.006728
24.488 0.860108
24.492 -0.011007
24.496 0.974227
24.500 1.962426
24.504 1.129113
24.508 0.015815
24.512 0.750826
24.516 1.933832
24.520 1.369913
24.524 0.095322
24.528 0.572830
24.532 1.891478
24.536 1.625046
24.540 0.271508
24.544 0.310222
24.548 1.730533
24.552 1.784991
24.556 0.426338
24.560 0.199550
24.564 1.527093
24.568 1.944460
24.572 0.669305
24.576 0.083495
24.580 1.248209
24.584 1.947696
24.588 0.815044
24.592 -0.067199
24.596 0.937579
24.600 1.922863
24.604 1.004094
24.608 -0.134240
24.612 0.623932
24.616 1.785795
24.620 1.231564
24.624 -0.044697
24.628 0.417358
24.632 1.712856
24.636 1.456664
24.640 0.058503
24.644 0.108484
24.648 1.466194
24.652 1.583723
24.656 0.213740
24.660 0.002511
24.664 1.329990
24.668 1.700086
24.672 0.451559
24.676 -0.120489
24.680 1.027525
24.684 1.771710
24.688 0.660611
24.692 -0.191971
24.696 0.769958
24.700 1.779585
24.704 0.900347
24.708 -0.231129
24.712 0.506728
24.716 1.698090
24.720 1.169330
24.724 -0.093165
24.728 0.367099
24.732 1.678116
24.736 1.470191
24.740 0.139862
24.744 0.246921
24.748 1.603690
24.752 1.664326
24.756 0.309768
24.760 0.077275
24.764 1.367130
24.768 1.816241
24.772 0.541021
24.776 -0.081444
24.780 1.156834
24.784 1.858044
24.788 0.747485
24.792 -0.139982
24.796 0.827635
24.800 1.814070
24.804 0.977172
24.808 -0.115140
24.812 0.593938
24.816 1.785600
24.820 1.204842
24.824 -0.089169
24.828 0.345528
24.832 1.615619
24.836 1.352497
24.840 0.006443
24.844 0.076248
24.848 1.403682
24.852 1.547625
24.856 0.122686
24.860 -0.134474
24.864 1.190821
24.868 1.599170
24.872 0.340328
24.876 -0.227160
24.880 0.964573
24.884 1.691184
24.888 0.542679
24.892 -0.334852
24.896 0.674139
24.900 1.614078
24.904 0.743843
24.908 -0.352621
24.912 0.365758
24.916 1.553490
24.920 0.992364
24.924 -0.274066
24.928 0.148309
24.932 1.526690
24.936 1.250202
24.940 -0.124732
24.944 0.009231
24.948 1.366561
24.952 1.467007
24.956 0.117506
24.960 -0.119190
24.964 1.173172
24.968 1.619614
24.972 0.365138
24.976 -0.193061
24.980 0.972944
24.984 1.716699
24.988 0.616675
24.992 -0.239707
24.996 0.775441
25.000 1.798553
25.004 0.925281
25.008 -0.149909
25.012 0.547881
25.016 1.741942
25.020 1.150311
25.024 -0.149652
25.028 0.327391
25.032 1.630069
25.036 1.361689
25.040 0.008752
25.044 0.061051
25.048 1.447535
25.052 1.537066
25.056 0.236031
25.060 -0.036138
25.064 1.270455
25.068 1.711708
25.072 0.425899
25.076 -0.165416
25.080 1.051609
25.084 1.771028
25.088 0.635501
25.092 -0.220399
25.096 0.770773
25.100 1.745767
25.104 0.866295
25.108 -0.225200
25.112 0.500240
25.116 1.709756
25.120 1.095366
25.124 -0.154514
25.128 0.305587
25.132 1.630228
25.136 1.367061
25.140 -0.005635
25.144 0.051731
25.148 1.380710
25.152 1.464918
25.156 0.107577
25.160 -0.185578
25.164 1.176508
25.168 1.593814
25.172 0.298788
25.176 -0.302905
25.180 0.932758
25.184 1.662274
25.188 0.521250
25.192 -0.346756
25.196 0.655144
25.200 1.714913
25.204 0.827851
25.208 -0.265675
25.212 0.463311
25.216 1.631314
25.220 1.081625
25.224 -0.198358
25.228 0.240897
25.232 1.565479
25.236 1.301407
25.240 -0.030981
25.244 0.043396
25.248 1.438368
25.252 1.527363
25.256 0.161305
25.260 -0.095141
25.264 1.250499
25.268 1.635575
25.272 0.350404
25.276 -0.238963
25.280 0.998036
25.284 1.715568
25.288 0.585003
25.292 -0.300628
25.296 0.683676
25.300 1.700287
25.304 0.850205
25.308 -0.268646
25.312 0.463862
25.316 1.677141
25.320 1.054798
25.324 -0.223763
25.328 0.233483
25.332 1.503169
25.336 1.238310
25.340 -0.109794
25.344 -0.011471
25.348 1.308684
25.352 1.357332
25.356 -0.007661
25.360 -0.236169
25.364 1.111808
25.368 1.583788
25.372 0.327610
25.376 -0.242390
25.380 1.012940
25.384 1.822372
25.388 0.802834
25.392 0.026475
25.396 1.066878
25.400 2.153179
25.404 1.425659
25.408 0.231004
25.412 0.872638
25.416 2.009354
25.420 1.326374
25.424 -0.030196
25.428 0.277003
25.432 1.563849
25.436 1.224628
25.440 -0.213802
25.444 -0.088085
25.448 1.337240
25.452 1.466884
25.456 0.195405
25.460 -0.052280
25.464 1.310611
25.468 1.766620
25.472 0.462304
25.476 -0.105671
25.480 1.043533
25.484 1.767175
25.488 0.689676
25.492 -0.179578
25.496 0.807242
25.500 1.847268
25.504 0.926929
25.508 -0.189405
25.512 0.522910
25.516 1.679015
25.520 1.109191
25.524 -0.169374
25.528 0.305272
25.532 1.623519
25.536 1.363365
25.540 0.029467
25.544 0.092841
25.548 1.504083
25.552 1.613273
25.556 0.239770
25.560 -0.036777
25.564 1.341690
25.568 1.793300
25.572 0.506666
25.576 -0.109952
25.580 1.132201
25.584 1.854378
25.588 0.717530
25.592 -0.123564
25.596 0.865230
25.600 1.874460
25.604 1.000626
25.608 -0.107377
25.612 0.603939
25.616 1.837459
25.620 1.249029
25.624 -0.065782
25.628 0.343877
25.632 1.685339
25.636 1.451659
25.640 0.081234
25.644 0.176068
25.648 1.558593
25.652 1.658352
25.656 0.268224
25.660 -0.000775
25.664 1.335080
25.668 1.744073
25.672 0.465190
25.676 -0.095811
25.680 1.052100
25.684 1.777154
25.688 0.672666
25.692 -0.198729
25.696 0.786919
25.700 1.783272
25.704 0.919321
25.708 -0.123955
25.712 0.571931
25.716 1.766327
25.720 1.174045
25.724 -0.116929
25.728 0.290702
25.732 1.618515
25.736 1.349337
25.740 0.003921
25.744 0.094631
25.748 1.434426
25.752 1.520837
25.756 0.147620
25.760 -0.120996
25.764 1.208498
25.768 1.641211
25.772 0.398387
25.776 -0.215052
25.780 1.018268
25.784 1.756129
25.788 0.619294
25.792 -0.223975
25.796 0.744891
25.800 1.758057
25.804 0.892736
25.808 -0.246894
25.812 0.457599
25.816 1.671399
25.820 1.130042
25.824 -0.133924
25.828 0.272169
25.832 1.578962
25.836 1.310205
25.840 -0.037702
25.844 0.113434
25.848 1.449718
25.852 1.567611
25.856 0.241925
25.860 -0.068057
25.864 1.297915
25.868 1.738767
25.872 0.489972
25.876 -0.085208
25.880 1.113515
25.884 1.857926
25.888 0.745160
25.892 -0.129329
25.896 0.874064
25.900 1.861600
25.904 0.975457
25.908 -0.090787
25.912 0.597954
25.916 1.811896
25.920 1.240283
25.924 -0.045372
25.928 0.399240
25.932 1.718690
25.936 1.509298
25.940 0.133638
25.944 0.203960
25.948 1.570583
25.952 1.637715
25.956 0.237724
25.960 0.008146
25.964 1.324723
25.968 1.738120
25.972 0.459675
25.976 -0.102551
25.980 1.115455
25.984 1.828664
25.988 0.734368
25.992 -0.131436
25.996 0.811866
26.000 1.807649
26.004 0.903764
26.008 -0.177641
26.012 0.514280
26.016 1.744454
26.020 1.146071
26.024 -0.131140
26.028 0.269760
26.032 1.616774
26.036 1.368977
26.040 0.034011
26.044 0.116640
26.048 1.444168
26.052 1.526933
26.056 0.168254
26.060 -0.061775
26.064 1.287948
26.068 1.742404
26.072 0.426895
26.076 -0.154348
26.080 1.037412
26.084 1.761024
26.088 0.672217
26.092 -0.220028
26.096 0.792472
26.100 1.850652
26.104 0.927315
26.108 -0.176480
26.112 0.562716
26.116 1.764210
26.120 1.141559
26.124 -0.139419
26.128 0.282988
26.132 1.596421
26.136 1.317696
26.140 -0.042628
26.144 0.065522
26.148 1.444288
26.152 1.530425
26.156 0.151310
26.160 -0.101310
26.164 1.211428
26.168 1.656491
26.172 0.369579
26.176 -0.187546
26.180 1.006274
26.184 1.736175
26.188 0.636968
26.192 -0.269476
26.196 0.764147
26.200 1.766150
26.204 0.902873
26.208 -0.220682
26.212 0.543277
26.216 1.763701
26.220 1.147504
26.224 -0.106315
26.228 0.274829
26.232 1.602220
26.236 1.337157
26.240 -0.020527
26.244 0.016992
26.248 1.398069
26.252 1.488508
26.256 0.142888
26.260 -0.156799
26.264 1.198731
26.268 1.651917
26.272 0.336627
26.276 -0.199132
26.280 0.974896
26.284 1.722062
26.288 0.626675
26.292 -0.275129
26.296 0.721251
26.300 1.712696
26.304 0.890794
26.308 -0.191640
26.312 0.490777
26.316 1.750494
26.320 1.149634
26.324 -0.162222
26.328 0.251920
26.332 1.619699
26.336 1.307970
26.340 -0.004354
26.344 0.062560
26.348 1.433834
26.352 1.516324
26.356 0.162277
26.360 -0.119538
26.364 1.250617
26.368 1.658384
26.372 0.417911
26.376 -0.151118
26.380 1.018002
26.384 1.783175
26.388 0.686353
26.392 -0.189567
26.396 0.763546
26.400 1.745978
26.404 0.880443
26.408 -0.236312
26.412 0.526707
26.416 1.669347
26.420 1.086420
26.424 -0.185165
26.428 0.276848
26.432 1.614402
26.436 1.418710
26.440 0.113531
26.444 0.244366
26.448 1.738455
26.452 1.918767
26.456 0.620514
26.460 0.470925
26.464 1.878942
26.468 2.177901
26.472 0.787058
26.476 0.098867
26.480 1.263729
26.484 1.861986
26.488 0.692142
26.492 -0.266099
26.496 0.689808
26.500 1.572073
26.504 0.727333
26.508 -0.307000
26.512 0.456413
26.516 1.748814
26.520 1.131338
26.524 -0.138360
26.528 0.254663
26.532 1.580721
26.536 1.296130
26.540 -0.049664
26.544 0.053759
26.548 1.416252
26.552 1.514633
26.556 0.180494
26.560 -0.076197
26.564 1.219684
26.568 1.659840
26.572 0.389522
26.576 -0.164706
26.580 1.030879
26.584 1.805382
26.588 0.675230
26.592 -0.219730
26.596 0.765503
26.600 1.796165
26.604 0.900763
26.608 -0.164640
26.612 0.568035
26.616 1.740820
26.620 1.178405
26.624 -0.058721
26.628 0.347029
26.632 1.715659
26.636 1.448625
26.640 0.098239
26.644 0.236624
26.648 1.572948
26.652 1.639252
26.656 0.357252
26.660 0.106530
26.664 1.421438
26.668 1.822243
26.672 0.526373
26.676 -0.035388
26.680 1.225606
26.684 1.934440
26.688 0.800080
26.692 -0.053251
26.696 0.955560
26.700 1.962417
26.704 1.096707
26.708 -0.030696
26.712 0.664656
26.716 1.831739
26.720 1.268857
26.724 0.034182
26.728 0.410026
26.732 1.760235
26.736 1.469650
26.740 0.131310
26.744 0.191002
26.748 1.548774
26.752 1.585453
26.756 0.263755
26.760 -0.012668
26.764 1.337942
26.768 1.760501
26.772 0.481563
26.776 -0.118166
26.780 1.094139
26.784 1.856589
26.788 0.757628
26.792 -0.138412
26.796 0.880824
26.800 1.899138
26.804 0.981617
26.808 -0.130566
26.812 0.583794
26.816 1.801811
26.820 1.203219
26.824 -0.073687
26.828 0.315201
26.832 1.613395
26.836 1.422579
26.840 0.057603
26.844 0.138622
26.848 1.565779
26.852 1.622736
26.856 0.287416
26.860 0.012538
26.864 1.375171
26.868 1.821309
26.872 0.495974
26.876 -0.035746
26.880 1.130985
26.884 1.827325
26.888 0.719965
26.892 -0.185707
26.896 0.852317
26.900 1.833211
26.904 1.005858
26.908 -0.148668
26.912 0.602140
26.916 1.821823
26.920 1.236125
26.924 -0.082348
26.928 0.319227
26.932 1.698576
26.936 1.378306
26.940 0.065174
26.944 0.137925
26.948 1.488640
26.952 1.576869
26.956 0.172038
26.960 -0.094244
26.964 1.279195
26.968 1.647753
26.972 0.399750
26.976 -0.161001
26.980 1.036805
26.984 1.765632
26.988 0.680777
26.992 -0.213800
26.996 0.759917
27.000 1.763750
27.004 0.916637
27.008 -0.210243
27.012 0.486576
27.016 1.686371
27.020 1.116400
27.024 -0.134485
27.028 0.257371
27.032 1.613800
27.036 1.335514
27.040 -0.019555
27.044 0.103710
27.048 1.449954
27.052 1.574923
27.056 0.168373
27.060 -0.058553
27.064 1.272515
27.068 1.690371
27.072 0.413718
27.076 -0.120039
27.080 1.055695
27.084 1.801953
27.088 0.683289
27.092 -0.153280
27.096 0.815630
27.100 1.833695
27.104 0.935996
27.108 -0.222663
27.112 0.508478
27.116 1.723276
27.120 1.110471
27.124 -0.158780
27.128 0.271262
27.132 1.541824
27.136 1.340559
27.140 -0.037262
27.144 0.035525
27.148 1.373741
27.152 1.478553
27.156 0.087967
27.160 -0.156137
27.164 1.186621
27.168 1.606181
27.172 0.376976
27.176 -0.230612
27.180 0.981290
27.184 1.733238
27.188 0.621593
27.192 -0.261828
27.196 0.761955
27.200 1.733855
27.204 0.828667
27.208 -0.255284
27.212 0.486580
27.216 1.670351
27.220 1.128697
27.224 -0.159536
27.228 0.237483
27.232 1.584646
27.236 1.349815
27.240 0.005378
27.244 0.092261
27.248 1.457254
27.252 1.547074
27.256 0.172574
27.260 -0.104912
27.264 1.233829
27.268 1.656918
27.272 0.375986
27.276 -0.221554
27.280 0.999348
27.284 1.686855
27.288 0.611045
27.292 -0.254662
27.296 0.739911
27.300 1.730232
27.304 0.888309
27.308 -0.197986
27.312 0.542235
27.316 1.742465
27.320 1.172566
27.324 -0.060279
27.328 0.344793
27.332 1.632808
27.336 1.422086
27.340 0.032198
27.344 0.111760
27.348 1.484274
27.352 1.552744
27.356 0.144062
27.360 -0.119175
27.364 1.218558
27.368 1.616203
27.372 0.301637
27.376 -0.277588
27.380 0.899458
27.384 1.606024
27.388 0.472549
27.392 -0.429239
27.396 0.576133
27.400 1.541252
27.404 0.670214
27.408 -0.447593
27.412 0.267639
27.416 1.506044
27.420 0.910933
27.424 -0.389041
27.428 0.059981
27.432 1.378425
27.436 1.135780
27.440 -0.227631
27.444 -0.173893
27.448 1.182537
27.452 1.226797
27.456 -0.108006
27.460 -0.414006
27.464 0.966750
27.468 1.410087
27.472 0.143682
27.476 -0.441460
27.480 0.876751
27.484 1.633117
27.488 0.596840
27.492 -0.151081
27.496 0.901230
27.500 2.012161
27.504 1.221476
27.508 0.001472
27.512 0.630316
27.516 1.759812
27.520 1.081133
27.524 -0.263844
27.528 0.072712
27.532 1.306586
27.536 1.005686
27.540 -0.407467
27.544 -0.318326
27.548 1.108580
27.552 1.259903
27.556 -0.070680
27.560 -0.318149
27.564 0.975180
27.568 1.449721
27.572 0.159489
27.576 -0.410937
27.580 0.776936
27.584 1.536217
27.588 0.410859
27.592 -0.406942
27.596 0.573502
27.600 1.567171
27.604 0.742143
27.608 -0.386715
27.612 0.371837
27.616 1.546238
27.620 0.974407
27.624 -0.302259
27.628 0.104604
27.632 1.414571
27.636 1.154462
27.640 -0.176453
27.644 -0.099721
27.648 1.275174
27.652 1.372350
27.656 -0.008889
27.660 -0.246705
27.664 1.144458
27.668 1.552341
27.672 0.251441
27.676 -0.299195
27.680 0.920526
27.684 1.621246
27.688 0.499541
27.692 -0.309005
27.696 0.668158
27.700 1.636240
27.704 0.821645
27.708 -0.319434
27.712 0.419679
27.716 1.566148
27.720 1.042718
27.724 -0.292173
27.728 0.139912
27.732 1.490883
27.736 1.216102
27.740 -0.128433
27.744 -0.089653
27.748 1.294254
27.752 1.392177
27.756 -0.013957
27.760 -0.242529
27.764 1.130175
27.768 1.541165
27.772 0.271732
27.776 -0.341747
27.780 0.877035
27.784 1.594944
27.788 0.465229
27.792 -0.406375
27.796 0.625618
27.800 1.659651
27.804 0.746746
27.808 -0.374645
27.812 0.366579
27.816 1.565241
27.820 1.005274
27.824 -0.254604
27.828 0.175342
27.832 1.450738
27.836 1.191971
27.840 -0.149781
27.844 -0.072233
27.848 1.345067
27.852 1.417270
27.856 0.044210
27.860 -0.157522
27.864 1.197423
27.868 1.636068
27.872 0.357482
27.876 -0.210752
27.880 0.975609
27.884 1.676410
27.888 0.576617
27.892 -0.294320
27.896 0.702028
27.900 1.685025
27.904 0.863111
27.908 -0.263683
27.912 0.488619
27.916 1.729192
27.920 1.175965
27.924 -0.126470
27.928 0.250770
27.932 1.594879
27.936 1.368351
27.940 0.010228
27.944 0.100327
27.948 1.431285
27.952 1.558352
27.956 0.204378
27.960 -0.072305
27.964 1.271620
27.968 1.673621
27.972 0.375295
27.976 -0.226846
27.980 0.970295
27.984 1.720005
27.988 0.621724
27.992 -0.202610
27.996 0.746497
28.000 1.724012
28.004 0.841570
28.008 -0.228729
28.012 0.484161
28.016 1.659107
28.020 1.093331
28.024 -0.195019
28.028 0.238511
28.032 1.615873
28.036 1.329116
28.040 -0.023578
28.044 0.079127
28.048 1.465924
28.052 1.569183
28.056 0.198919
28.060 -0.120385
28.064 1.219699
28.068 1.657937
28.072 0.378242
28.076 -0.225977
28.080 0.968085
28.084 1.701388
28.088 0.578858
28.092 -0.320082
28.096 0.647924
28.100 1.665936
28.104 0.809394
28.108 -0.271715
28.112 0.451489
28.116 1.618510
28.120 1.037265
28.124 -0.249807
28.128 0.169916
28.132 1.508029
28.136 1.262376
28.140 -0.109698
28.144 -0.029227
28.148 1.338179
28.152 1.459891
28.156 0.067145
28.160 -0.190334
28.164 1.171516
28.168 1.541916
28.172 0.290216
28.176 -0.313904
28.180 0.904902
28.184 1.638165
28.188 0.473804
28.192 -0.396497
28.196 0.586367
28.200 1.555442
28.204 0.747547
28.208 -0.356374
28.212 0.393408
28.216 1.606009
28.220 1.073626
28.224 -0.234897
28.228 0.202740
28.232 1.534712
28.236 1.260541
28.240 -0.093561
28.244 -0.028309
28.248 1.404991
28.252 1.463467
28.256 0.143247
28.260 -0.088845
28.264 1.223662
28.268 1.701021
28.272 0.399779
28.276 -0.199755
28.280 0.974587
28.284 1.708486
28.288 0.584725
28.292 -0.307292
28.296 0.701213
28.300 1.697396
28.304 0.851210
28.308 -0.264933
28.312 0.428071
28.316 1.631449
28.320 1.070934
28.324 -0.243412
28.328 0.171265
28.332 1.508755
28.336 1.222434
28.340 -0.188949
28.344 -0.061973
28.348 1.300382
28.352 1.403354
28.356 0.050336
28.360 -0.204601
28.364 1.151621
28.368 1.609269
28.372 0.358238
28.376 -0.218019
28.380 0.970040
28.384 1.693710
28.388 0.571250
28.392 -0.286099
28.396 0.703030
28.400 1.724181
28.404 0.831364
28.408 -0.303947
28.412 0.411731
28.416 1.633318
28.420 1.052465
28.424 -0.253874
28.428 0.204835
28.432 1.499158
28.436 1.216544
28.440 -0.128198
28.444 -0.086344
28.448 1.244045
28.452 1.355899
28.456 -0.043375
28.460 -0.270084
28.464 1.030864
28.468 1.479014
28.472 0.213462
28.476 -0.392535
28.480 0.789641
28.484 1.532291
28.488 0.429570
28.492 -0.441636
28.496 0.528972
28.500 1.507179
28.504 0.604687
28.508 -0.509524
28.512 0.234715
28.516 1.485329
28.520 0.882193
28.524 -0.371801
28.528 0.125015
28.532 1.559102
28.536 1.359400
28.540 0.080010
28.544 0.239367
28.548 1.683407
28.552 1.836842
28.556 0.382836
28.560 0.021855
28.564 1.268877
28.568 1.606582
28.572 0.241204
28.576 -0.375468
28.580 0.720373
28.584 1.391388
28.588 0.225129
28.592 -0.608957
28.596 0.462889
28.600 1.470796
28.604 0.664709
28.608 -0.467480
28.612 0.268905
28.616 1.456028
28.620 0.911420
28.624 -0.372207
28.628 0.017259
28.632 1.383728
28.636 1.065945
28.640 -0.292123
28.644 -0.236469
28.648 1.128462
28.652 1.192570
28.656 -0.175206
28.660 -0.457897
28.664 0.864123
28.668 1.310044
28.672 0.044674
28.676 -0.540127
28.680 0.639034
28.684 1.425425
28.688 0.283806
28.692 -0.536941
28.696 0.455099
28.700 1.493150
28.704 0.569408
28.708 -0.534534
28.712 0.225560
28.716 1.398702
28.720 0.804682
28.724 -0.415250
28.728 -0.029148
28.732 1.360768
28.736 1.081034
28.740 -0.218479
28.744 -0.127415
28.748 1.214078
28.752 1.345189
28.756 -0.051075
28.760 -0.275155
28.764 1.076954
28.768 1.497678
28.772 0.229077
28.776 -0.378991
28.780 0.818307
28.784 1.484499
28.788 0.386437
28.792 -0.468810
28.796 0.559317
28.800 1.548915
28.804 0.648511
28.808 -0.504761
28.812 0.279878
28.816 1.408502
28.820 0.843365
28.824 -0.415696
28.828 -0.025371
28.832 1.352360
28.836 1.047441
28.840 -0.308351
28.844 -0.226086
28.848 1.120290
28.852 1.211977
28.856 -0.131797
28.860 -0.424235
28.864 0.910668
28.868 1.389767
28.872 0.093606
28.876 -0.521577
28.880 0.700288
28.884 1.399648
28.888 0.282752
28.892 -0.582777
28.896 0.364072
28.900 1.347531
28.904 0.471526
28.908 -0.582082
28.912 0.117098
28.916 1.331670
28.920 0.708670
28.924 -0.514394
28.928 -0.083426
28.932 1.256796
28.936 0.973729
28.940 -0.356965
28.944 -0.217724
28.948 1.136377
28.952 1.213345
28.956 -0.183976
28.960 -0.407603
28.964 0.907463
28.968 1.317782
28.972 0.036905
28.976 -0.565212
28.980 0.638132
28.984 1.397615
28.988 0.305992
28.992 -0.586270
28.996 0.387585
29.000 1.450545
29.004 0.570971
29.008 -0.557843
29.012 0.148913
29.016 1.318281
29.020 0.724244
29.024 -0.530495
29.028 -0.105363
29.032 1.213523
29.036 0.998065
29.040 -0.384934
29.044 -0.284941
29.048 1.096985
29.052 1.207490
29.056 -0.173082
29.060 -0.430540
29.064 0.914504
29.068 1.341038
29.072 0.056394
29.076 -0.559731
29.080 0.644243
29.084 1.359018
29.088 0.278054
29.092 -0.609803
29.096 0.374068
29.100 1.369486
29.104 0.475106
29.108 -0.577626
29.112 0.089070
29.116 1.291782
29.120 0.720250
29.124 -0.586431
29.128 -0.130624
29.132 1.167624
29.136 0.951836
29.140 -0.449549
29.144 -0.331748
29.148 1.039801
29.152 1.125330
29.156 -0.231100
29.160 -0.469408
29.164 0.858400
29.168 1.269993
29.172 0.006367
29.176 -0.598171
29.180 0.584669
29.184 1.320723
29.188 0.197238
29.192 -0.672656
29.196 0.352522
29.200 1.325029
29.204 0.411153
29.208 -0.717632
29.212 0.007699
29.216 1.215062
29.220 0.644223
29.224 -0.627524
29.228 -0.185264
29.232 1.204771
29.236 0.883098
29.240 -0.485407
29.244 -0.408320
29.248 0.952050
29.252 1.031807
29.256 -0.331415
29.260 -0.597251
29.264 0.786046
29.268 1.191350
29.272 -0.060606
29.276 -0.621133
29.280 0.559494
29.284 1.311901
29.288 0.259649
29.292 -0.643795
29.296 0.326242
29.300 1.357689
29.304 0.462748
29.308 -0.627249
29.312 0.083949
29.316 1.274433
29.320 0.686368
29.324 -0.597086
29.328 -0.177966
29.332 1.139351
29.336 0.926268
29.340 -0.449809
29.344 -0.385044
29.348 1.023750
29.352 1.070421
29.356 -0.242101
29.360 -0.539160
29.364 0.788169
29.368 1.263341
29.372 -0.022070
29.376 -0.614442
29.380 0.620145
29.384 1.360587
29.388 0.247529
29.392 -0.597715
29.396 0.394609
29.400 1.443378
29.404 0.574004
29.408 -0.587067
29.412 0.139563
29.416 1.371781
29.420 0.751250
29.424 -0.534369
29.428 -0.128220
29.432 1.213137
29.436 0.939108
29.440 -0.379194
29.444 -0.262564
29.448 1.070885
29.452 1.146469
29.456 -0.217225
29.460 -0.463067
29.464 0.815390
29.468 1.215625
29.472 -0.049720
29.476 -0.652072
29.480 0.513115
29.484 1.248139
29.488 0.137190
29.492 -0.683793
29.496 0.310382
29.500 1.257696
29.504 0.364769
29.508 -0.726994
29.512 0.019522
29.516 1.238823
29.520 0.666605
29.524 -0.648035
29.528 -0.220262
29.532 1.095589
29.536 0.856507
29.540 -0.569939
29.544 -0.527712
29.548 0.841630
29.552 0.906420
29.556 -0.395106
29.560 -0.667267
29.564 0.701701
29.568 1.155915
29.572 -0.022652
29.576 -0.602348
29.580 0.730833
29.584 1.546824
29.588 0.537269
29.592 -0.268140
29.596 0.801148
29.600 1.693038
29.604 0.782098
29.608 -0.443862
29.612 0.216364
29.616 1.323380
29.620 0.684406
29.624 -0.620471
29.628 -0.273962
29.632 0.961521
29.636 0.768268
29.640 -0.481844
29.644 -0.384379
29.648 1.020983
29.652 1.086421
29.656 -0.255370
29.660 -0.525590
29.664 0.785225
29.668 1.190149
29.672 -0.062010
29.676 -0.668586
29.680 0.562826
29.684 1.341841
29.688 0.204142
29.692 -0.710795
29.696 0.287788
29.700 1.240129
29.704 0.406743
29.708 -0.684213
29.712 0.015071
29.716 1.207686
29.720 0.638506
29.724 -0.670586
29.728 -0.252063
29.732 1.080233
29.736 0.834210
29.740 -0.513360
29.744 -0.470559
29.748 0.878635
29.752 0.993652
29.756 -0.351978
29.760 -0.612432
29.764 0.743726
29.768 1.141028
29.772 -0.098980
29.776 -0.662025
29.780 0.566760
29.784 1.325530
29.788 0.199922
29.792 -0.633419
29.796 0.333435
29.800 1.340716
29.804 0.511957
29.808 -0.613934
29.812 0.147962
29.816 1.369039
29.820 0.807613
29.824 -0.478998
29.828 -0.020857
29.832 1.311638
29.836 1.040219
29.840 -0.303160
29.844 -0.234451
29.848 1.113794
29.852 1.199583
29.856 -0.137222
29.860 -0.385010
29.864 0.905656
29.868 1.292609
29.872 -0.006740
29.876 -0.576786
29.880 0.621735
29.884 1.321537
29.888 0.263324
29.892 -0.656186
29.896 0.307659
29.900 1.295222
29.904 0.403803
29.908 -0.696504
29.912 0.037495
29.916 1.235261
29.920 0.664878
29.924 -0.649705
29.928 -0.233122
29.932 1.137002
29.936 0.851899
29.940 -0.477503
29.944 -0.413461
29.948 0.985431
29.952 1.049530
29.956 -0.273708
29.960 -0.560767
29.964 0.783029
29.968 1.185778
29.972 -0.122972
29.976 -0.691462
29.980 0.547415
29.984 1.324863
29.988 0.203926
29.992 -0.677099
29.996 0.330306
30.000 1.301954
30.004 0.433967
30.008 -0.673543
30.012 0.050418
30.016 1.279250
30.020 0.724963
30.024 -0.603355
30.028 -0.179645
30.032 1.153374
30.036 0.887697
30.040 -0.481363
30.044 -0.382425
30.048 0.934073
30.052 1.047116
30.056 -0.303429
30.060 -0.540522
30.064 0.814282
30.068 1.242481
30.072 -0.088429
30.076 -0.627323
30.080 0.541477
30.084 1.276433
30.088 0.176520
30.092 -0.683520
30.096 0.270495
